Data from Subt16_11-19-43-218.txt Node
Date: Wed Feb 15 11:19:43 EST 2023
User: Wilson Lab
Spectrometer: FLMS03149
Trigger mode: 0
Integration Time (sec): 1.000000E0
Scans to average: 1
Electric dark correction enabled: true
Nonlinearity correction enabled: false
Boxcar width: 0
XAxis mode: Wavelengths
Number of Pixels in Spectrum: 2048
>>>>>Begin Spectral Data<<<<<
338.754	57.34
339.138	57.34
339.521	57.34
339.905	125.22
340.288	50.32
340.671	24.58
341.055	15.21
341.438	-129.9
341.821	40.96
342.204	73.73
342.587	-19.89
342.97	12.87
343.353	-26.92
343.736	66.71
344.119	-38.62
344.502	-17.55
344.885	-8.19
345.268	-106.49
345.65	108.83
346.033	-10.53
346.416	15.21
346.798	141.6
347.181	115.86
347.563	26.92
347.946	71.39
348.328	228.2
348.71	52.66
349.093	-19.89
349.475	97.13
349.857	-90.11
350.239	-29.26
350.621	-47.98
351.003	-10.53
351.385	66.71
351.767	69.05
352.149	-113.52
352.531	-12.87
352.913	-45.64
353.295	19.89
353.676	22.24
354.058	-78.41
354.44	-15.21
354.821	1.17
355.203	-12.87
355.584	-69.05
355.966	-29.26
356.347	-50.32
356.729	-45.64
357.11	83.09
357.491	-71.39
357.873	33.94
358.254	12.87
358.635	66.71
359.016	141.6
359.397	62.02
359.778	-57.34
360.159	43.3
360.54	66.71
360.921	71.39
361.301	97.13
361.682	69.05
362.063	26.92
362.444	-12.87
362.824	83.09
363.205	-47.98
363.585	38.62
363.966	-47.98
364.346	22.24
364.727	-64.36
365.107	-443.53
365.487	-17.55
365.867	-179.05
366.248	-50.32
366.628	10.53
367.008	12.87
367.388	-12.87
367.768	36.28
368.148	-10.53
368.528	15.21
368.908	118.2
369.288	-62.02
369.667	8.19
370.047	115.86
370.427	22.24
370.806	-43.3
371.186	-148.62
371.566	71.39
371.945	43.3
372.325	-31.6
372.704	76.07
373.083	38.62
373.463	-33.94
373.842	50.32
374.221	-85.43
374.6	-36.28
374.979	-64.36
375.358	15.21
375.737	-92.45
376.116	743.12
376.495	174.37
376.874	57.34
377.253	-33.94
377.632	127.56
378.011	-10.53
378.389	101.81
378.768	19.89
379.147	-26.92
379.525	-38.62
379.904	97.13
380.282	-29.26
380.661	-31.6
381.039	80.75
381.417	5.85
381.796	181.39
382.174	17.55
382.552	78.41
382.93	17.55
383.308	64.36
383.686	-71.39
384.064	10.53
384.442	111.18
384.82	-129.9
385.198	47.98
385.576	-40.96
385.954	160.33
386.331	31.6
386.709	-3.51
387.087	99.47
387.464	-127.56
387.842	90.11
388.219	-15.21
388.597	31.6
388.974	50.32
389.351	36.28
389.729	-141.6
390.106	-225.86
390.483	3.51
390.86	69.05
391.237	15.21
391.614	-26.92
391.991	90.11
392.368	92.45
392.745	-50.32
393.122	-71.39
393.499	-17.55
393.876	195.43
394.253	47.98
394.629	97.13
395.006	66.71
395.382	155.65
395.759	-45.64
396.135	141.6
396.512	-19.89
396.888	76.07
397.265	69.05
397.641	118.2
398.017	-40.96
398.393	108.83
398.77	71.39
399.146	141.6
399.522	31.6
399.898	-24.58
400.274	-33.94
400.65	3.51
401.026	118.2
401.401	12.87
401.777	17.55
402.153	92.45
402.529	-5.85
402.904	-24.58
403.28	40.96
403.655	-3.51
404.031	78.41
404.406	1.17
404.782	22.24
405.157	132.24
405.532	-38.62
405.908	12.87
406.283	-59.68
406.658	-1.17
407.033	-45.64
407.408	15.21
407.783	64.36
408.158	8.19
408.533	-47.98
408.908	66.71
409.283	-5.85
409.658	38.62
410.033	-3.51
410.407	8.19
410.782	33.94
411.157	71.39
411.531	-69.05
411.906	-10.53
412.28	-92.45
412.654	172.03
413.029	-10.53
413.403	22.24
413.777	73.73
414.152	66.71
414.526	-31.6
414.9	136.92
415.274	78.41
415.648	-64.36
416.022	90.11
416.396	26.92
416.77	-38.62
417.144	-29.26
417.518	-17.55
417.891	73.73
418.265	24.58
418.639	29.26
419.012	-115.86
419.386	-186.07
419.759	-52.66
420.133	-57.34
420.506	62.02
420.88	-19.89
421.253	90.11
421.626	50.32
421.999	76.07
422.373	-29.26
422.746	26.92
423.119	83.09
423.492	134.58
423.865	43.3
424.238	57.34
424.611	24.58
424.984	125.22
425.356	120.54
425.729	190.75
426.102	108.83
426.474	40.96
426.847	1.17
427.22	55
427.592	62.02
427.965	101.81
428.337	8.19
428.709	-22.24
429.082	47.98
429.454	73.73
429.826	-47.98
430.198	-62.02
430.571	120.54
430.943	43.3
431.315	-15.21
431.687	-115.86
432.059	8.19
432.431	8.19
432.802	36.28
433.174	31.6
433.546	92.45
433.918	-76.07
434.289	-15.21
434.661	-64.36
435.032	-15.21
435.404	-57.34
435.775	-10.53
436.147	55
436.518	-59.68
436.89	57.34
437.261	59.68
437.632	19.89
438.003	50.32
438.374	73.73
438.745	-17.55
439.116	31.6
439.487	94.79
439.858	22.24
440.229	69.05
440.6	66.71
440.971	87.77
441.342	10.53
441.712	-45.64
442.083	-40.96
442.454	47.98
442.824	3.51
443.195	33.94
443.565	-83.09
443.936	-52.66
444.306	-22.24
444.676	-66.71
445.047	64.36
445.417	-8.19
445.787	43.3
446.157	50.32
446.527	141.6
446.897	-485.66
447.267	104.15
447.637	26.92
448.007	22.24
448.377	-97.13
448.747	-73.73
449.116	71.39
449.486	64.36
449.856	85.43
450.225	50.32
450.595	94.79
450.964	50.32
451.334	94.79
451.703	29.26
452.073	24.58
452.442	57.34
452.811	31.6
453.18	38.62
453.55	136.92
453.919	73.73
454.288	52.66
454.657	104.15
455.026	43.3
455.395	78.41
455.764	-24.58
456.132	59.68
456.501	15.21
456.87	125.22
457.239	69.05
457.607	101.81
457.976	-45.64
458.344	50.32
458.713	3.51
459.081	-104.15
459.45	64.36
459.818	66.71
460.186	78.41
460.555	10.53
460.923	36.28
461.291	71.39
461.659	136.92
462.027	-3.51
462.395	90.11
462.763	-115.86
463.131	-47.98
463.499	101.81
463.867	40.96
464.235	22.24
464.602	-5.85
464.97	-26.92
465.338	-3.51
465.705	-85.43
466.073	50.32
466.44	19.89
466.808	-134.58
467.175	111.18
467.542	-87.77
467.91	-5.85
468.277	-106.49
468.644	12.87
469.011	36.28
469.378	-1.17
469.745	-59.68
470.112	69.05
470.479	122.88
470.846	-36.28
471.213	78.41
471.58	8.19
471.947	-24.58
472.313	-12.87
472.68	85.43
473.047	59.68
473.413	12.87
473.78	113.52
474.146	31.6
474.513	-1950.84
474.879	-43.3
475.245	29.26
475.612	-359.27
475.978	-38.62
476.344	3.51
476.71	64.36
477.076	-64.36
477.442	125.22
477.808	139.26
478.174	-134.58
478.54	-43.3
478.906	174.37
479.272	132.24
479.638	-136.92
480.003	-5.85
480.369	36.28
480.734	87.77
481.1	-50.32
481.466	-76.07
481.831	-8.19
482.196	1.17
482.562	-24.58
482.927	73.73
483.292	111.18
483.658	38.62
484.023	-101.81
484.388	36.28
484.753	-71.39
485.118	-24.58
485.483	179.05
485.848	10.53
486.213	52.66
486.578	-12.87
486.942	3.51
487.307	90.11
487.672	-111.18
488.036	-19.89
488.401	-10.53
488.765	113.52
489.13	106.49
489.494	71.39
489.859	40.96
490.223	15.21
490.587	-83.09
490.952	36.28
491.316	26.92
491.68	26.92
492.044	87.77
492.408	-22.24
492.772	-10.53
493.136	73.73
493.5	64.36
493.864	69.05
494.228	3.51
494.591	90.11
494.955	172.03
495.319	104.15
495.682	-31.6
496.046	52.66
496.409	-71.39
496.773	94.79
497.136	47.98
497.5	17.55
497.863	-118.2
498.226	87.77
498.589	52.66
498.953	10.53
499.316	64.36
499.679	-33.94
500.042	76.07
500.405	-76.07
500.768	33.94
501.131	38.62
501.494	-1.17
501.856	-36.28
502.219	71.39
502.582	-29.26
502.944	122.88
503.307	17.55
503.669	94.79
504.032	26.92
504.394	55
504.757	108.83
505.119	99.47
505.481	38.62
505.844	125.22
506.206	186.07
506.568	-24.58
506.93	-235.22
507.292	113.52
507.654	55
508.016	-17.55
508.378	94.79
508.74	87.77
509.102	19.89
509.463	-12.87
509.825	52.66
510.187	90.11
510.548	-26.92
510.91	179.05
511.272	125.22
511.633	64.36
511.994	26.92
512.356	90.11
512.717	5.85
513.078	120.54
513.44	50.32
513.801	31.6
514.162	120.54
514.523	186.07
514.884	29.26
515.245	22.24
515.606	38.62
515.967	186.07
516.328	104.15
516.688	29.26
517.049	57.34
517.41	5.85
517.77	-38.62
518.131	33.94
518.491	71.39
518.852	136.92
519.212	78.41
519.573	-76.07
519.933	-62.02
520.293	3.51
520.654	-29.26
521.014	118.2
521.374	50.32
521.734	12.87
522.094	62.02
522.454	136.92
522.814	83.09
523.174	33.94
523.534	97.13
523.894	115.86
524.253	157.99
524.613	225.86
524.973	111.18
525.332	-3.51
525.692	78.41
526.051	15.21
526.411	-8.19
526.77	-29.26
527.13	246.93
527.489	83.09
527.848	31.6
528.207	85.43
528.567	-340.55
528.926	97.13
529.285	197.78
529.644	-3.51
530.003	179.05
530.362	129.9
530.72	286.72
531.079	282.03
531.438	251.61
531.797	193.09
532.155	218.84
532.514	349.91
532.873	216.5
533.231	378
533.59	368.63
533.948	2882.37
534.306	14872.93
534.665	23860.59
535.023	31497.76
535.381	28721.88
535.739	22264.35
536.097	15348.06
536.456	11205.31
536.814	7144.49
537.172	4373.29
537.529	1817.43
537.887	921
538.245	691.63
538.603	394.38
538.961	356.93
539.318	1077.82
539.676	1602.1
540.034	3069.61
540.391	2365.11
540.749	1672.31
541.106	1012.28
541.463	1166.76
541.821	883.55
542.178	1000.58
542.535	569.92
542.892	272.67
543.25	275.01
543.607	99.47
543.964	146.28
544.321	249.27
544.678	497.36
545.035	462.26
545.391	761.84
545.748	593.33
546.105	420.13
546.462	422.47
546.818	392.04
547.175	373.32
547.531	347.57
547.888	181.39
548.244	193.09
548.601	71.39
548.957	176.71
549.313	197.78
549.67	218.84
550.026	298.42
550.382	45.64
550.738	139.26
551.094	324.16
551.45	204.8
551.806	165.01
552.162	228.2
552.518	324.16
552.874	303.1
553.229	424.81
553.585	363.95
553.941	328.85
554.296	466.94
554.652	497.36
555.007	356.93
555.363	441.19
555.718	445.87
556.074	387.36
556.429	473.96
556.784	534.81
557.139	548.86
557.495	583.96
557.85	605.03
558.205	574.6
558.56	651.84
558.915	752.48
559.27	572.26
559.624	752.48
559.979	729.08
560.334	846.1
560.689	878.87
561.043	890.57
561.398	977.17
561.753	991.22
562.107	1157.39
562.462	1042.71
562.816	1283.78
563.17	1258.04
563.525	1288.46
563.879	1529.54
564.233	1522.52
564.587	1550.6
564.941	1660.61
565.295	1557.63
565.649	1747.21
566.003	1669.97
566.357	1955.52
566.711	2138.08
567.065	2315.96
567.419	2227.02
567.773	2463.41
568.126	2493.84
568.48	2781.73
568.833	2751.3
569.187	3020.46
569.54	3151.53
569.894	3460.48
570.247	3629
570.6	3617.3
570.954	3865.39
571.307	3982.42
571.66	4239.88
572.013	4464.57
572.366	4832.04
572.719	4864.8
573.072	5185.46
573.425	5403.13
573.778	5754.21
574.131	5889.96
574.484	6224.65
574.836	6315.94
575.189	6727.87
575.542	7039.16
575.894	7533.01
576.247	7914.52
576.599	8045.59
576.952	8345.18
577.304	8862.44
577.656	9169.05
578.009	9681.63
578.361	9805.67
578.713	10329.95
579.065	10629.54
579.417	11001.69
579.769	11881.73
580.121	11874.71
580.473	12628.36
580.825	13080.08
581.177	13463.93
581.528	13969.49
581.88	14552.28
582.232	14992.3
582.584	15317.64
582.935	15668.72
583.287	16473.86
583.638	16759.41
583.989	17295.39
584.341	17906.27
584.692	18596.73
585.043	18657.58
585.395	19254.42
585.746	20066.58
586.097	20183.61
586.448	20658.74
586.799	21592.61
587.15	21971.78
587.501	22641.17
587.852	22783.94
588.203	23446.32
588.553	24258.48
588.904	23928.47
589.255	24574.45
589.605	25197.04
589.956	25445.13
590.306	25896.86
590.657	26755.83
591.007	26947.76
591.358	27301.18
591.708	27776.31
592.058	27956.53
592.408	28604.86
592.759	28602.52
593.109	29154.88
593.459	29290.63
593.809	29899.17
594.159	30165.99
594.509	29852.36
594.859	30039.61
595.208	30458.56
595.558	30898.58
595.908	30933.69
596.258	30514.73
596.607	31596.06
596.957	30811.98
597.306	31394.78
597.656	31589.04
598.005	31305.84
598.354	31387.75
598.704	30816.66
599.053	31158.38
599.402	31013.27
599.751	31446.27
600.1	31582.02
600.45	31039.01
600.799	31542.23
601.148	30964.12
601.496	31069.44
601.845	30503.03
602.194	31345.62
602.543	31252
602.892	29999.82
603.24	30580.27
603.589	30797.94
603.937	30245.57
604.286	29927.26
604.634	29463.83
604.983	29740.02
605.331	29189.99
605.679	28998.07
606.028	29339.79
606.376	29253.19
606.724	29087.01
607.072	28312.29
607.42	27949.51
607.768	27649.92
608.116	27865.25
608.464	27355.01
608.812	27025
609.16	26952.44
609.507	26758.17
609.855	26479.65
610.203	25751.74
610.55	25800.9
610.898	25711.96
611.245	25246.19
611.593	25047.24
611.94	25108.1
612.288	23804.42
612.635	23659.31
612.982	23539.94
613.329	23034.38
613.676	22683.3
614.024	22790.97
614.371	22180.09
614.718	22116.89
615.064	21756.45
615.411	21473.24
615.758	20932.58
616.105	20546.39
616.452	20356.81
616.798	20270.21
617.145	20001.05
617.492	19523.58
617.838	19355.06
618.185	18933.76
618.531	18683.33
618.877	18744.18
619.224	18365.01
619.57	18112.24
619.916	18070.11
620.263	17445.18
620.609	17105.81
620.955	17094.1
621.301	16476.2
621.647	16413.01
621.993	16082.99
622.339	16080.65
622.684	15547.01
623.03	15518.92
623.376	14933.79
623.722	14964.22
624.067	14744.2
624.413	14449.3
624.758	14219.92
625.104	14329.93
625.449	13723.73
625.795	13735.43
626.14	13428.82
626.485	12960.72
626.83	13274.35
627.175	12799.22
627.521	12462.18
627.866	12160.25
628.211	12139.19
628.556	11832.58
628.901	11755.34
629.245	11722.57
629.59	11371.49
629.935	11387.88
630.28	11128.08
630.624	11008.71
630.969	10865.94
631.314	10549.96
631.658	10409.53
632.002	10016.32
632.347	10112.28
632.691	9875.89
633.036	10004.62
633.38	9595.03
633.724	9918.02
634.068	9466.3
634.412	9276.71
634.756	9052.02
635.1	9037.98
635.444	8984.15
635.788	8787.54
636.132	8789.88
636.476	8635.41
636.82	8544.13
637.163	8265.6
637.507	8424.76
637.85	8366.24
638.194	8509.02
638.537	8157.94
638.881	7980.06
639.224	7916.86
639.568	7741.32
639.911	7989.42
640.254	7734.3
640.597	7511.95
640.94	7820.9
641.284	7401.94
641.627	7355.13
641.97	7125.76
642.312	7280.24
642.655	7160.87
642.998	6945.54
643.341	6950.22
643.684	7032.14
644.026	7081.29
644.369	6966.6
644.712	6830.85
645.054	6540.63
645.396	6545.31
645.739	6395.51
646.081	6329.98
646.424	6538.29
646.766	6383.81
647.108	6283.17
647.45	6203.59
647.792	6212.95
648.134	6180.18
648.476	6025.71
648.818	5960.17
649.16	6014.01
649.502	5761.23
649.844	5899.32
650.186	5625.48
650.527	5700.37
650.869	5700.37
651.211	5836.13
651.552	5899.32
651.894	5798.68
652.235	5660.59
652.576	5485.05
652.918	5468.66
653.259	5286.1
653.6	5576.33
653.942	5522.49
654.283	5382.06
654.624	5075.45
654.965	5077.79
655.306	5222.91
655.647	5253.33
655.988	5169.07
656.328	5056.73
656.669	5035.66
657.01	5030.98
657.351	4986.51
657.691	4766.5
658.032	4827.35
658.372	4876.51
658.713	4808.63
659.053	4525.43
659.394	4789.91
659.734	4558.19
660.074	4506.7
660.414	4427.12
660.755	4541.81
661.095	4548.83
661.435	4413.08
661.775	4380.31
662.115	4321.8
662.455	4349.89
662.794	4424.78
663.134	4111.15
663.474	4328.82
663.814	4150.94
664.153	4015.19
664.493	4019.87
664.833	4003.49
665.172	4001.15
665.511	3902.84
665.851	3954.34
666.19	3909.86
666.529	3865.39
666.869	3682.83
667.208	3860.71
667.547	3675.81
667.886	3589.21
668.225	3476.87
668.564	3591.55
668.903	3558.78
669.242	3439.42
669.581	3434.74
669.92	3416.01
670.258	3313.03
670.597	3170.26
670.936	3341.11
671.274	3280.26
671.613	3050.89
671.951	3160.89
672.29	3121.1
672.628	3137.49
672.966	1513.16
673.304	2905.78
673.643	2887.05
673.981	2856.62
674.319	2968.97
674.657	2952.59
674.995	2816.83
675.333	2842.58
675.671	2748.96
676.009	2669.38
676.346	2741.94
676.684	2557.04
677.022	2559.38
677.36	2624.91
677.697	2617.89
678.035	2470.44
678.372	2552.35
678.71	2435.33
679.047	2320.64
679.384	2423.62
679.722	2322.98
680.059	2456.39
680.396	2276.17
680.733	2224.68
681.07	2292.55
681.407	2149.78
681.744	2156.8
682.081	2140.42
682.418	2086.59
682.755	2074.88
683.092	2128.72
683.428	1960.2
683.765	1946.16
684.102	1887.64
684.438	2030.41
684.775	1808.06
685.111	1840.83
685.447	1808.06
685.784	1978.92
686.12	1709.76
686.456	1892.32
686.793	1730.83
687.129	1761.25
687.465	1775.3
687.801	1679.33
688.137	1616.14
688.473	1634.86
688.809	1672.31
689.144	1595.08
689.48	1627.84
689.816	1548.26
690.152	1595.08
690.487	1332.94
690.823	1414.85
691.158	1440.6
691.494	1529.54
691.829	1433.58
692.165	1417.19
692.5	1424.22
692.835	1398.47
693.17	1356.34
693.506	1330.59
693.841	1330.59
694.176	1330.59
694.511	1335.28
694.846	1194.84
695.181	1260.38
695.515	1110.58
695.85	1133.99
696.185	1117.61
696.52	1098.88
696.854	1098.88
697.189	1239.31
697.523	1077.82
697.858	946.75
698.192	1000.58
698.527	1054.41
698.861	1021.64
699.195	1087.18
699.53	1045.05
699.864	991.22
700.198	991.22
700.532	956.11
700.866	1012.28
701.2	906.96
701.534	939.73
701.868	867.17
702.201	951.43
702.535	904.62
702.869	834.4
703.203	885.89
703.536	906.96
703.87	729.08
704.203	836.74
704.537	899.94
704.87	761.84
705.203	738.44
705.537	670.56
705.87	848.44
706.203	796.95
706.536	710.35
706.869	703.33
707.202	822.7
707.535	747.8
707.868	567.58
708.201	729.08
708.534	693.97
708.867	766.53
709.199	689.29
709.532	719.71
709.865	761.84
710.197	614.39
710.53	619.07
710.862	691.63
711.195	560.56
711.527	588.64
711.859	560.56
712.191	717.37
712.524	478.64
712.856	614.39
713.188	598.01
713.52	555.88
713.852	612.05
714.184	539.49
714.516	583.96
714.847	520.77
715.179	502.04
715.511	609.71
715.843	495.02
716.174	532.47
716.506	560.56
716.837	560.56
717.169	558.22
717.5	459.92
717.832	509.07
718.163	520.77
718.494	326.5
718.825	518.43
719.156	473.96
719.488	321.82
719.819	378
720.15	387.36
720.48	424.81
720.811	541.83
721.142	616.73
721.473	471.62
721.804	642.48
722.134	378
722.465	469.28
722.796	443.53
723.126	466.94
723.457	448.21
723.787	223.52
724.117	455.23
724.448	340.55
724.778	420.13
725.108	413.1
725.438	385.02
725.768	466.94
726.098	356.93
726.428	469.28
726.758	385.02
727.088	319.48
727.418	312.46
727.748	422.47
728.078	417.79
728.407	333.53
728.737	347.57
729.066	289.06
729.396	319.48
729.725	354.59
730.055	218.84
730.384	300.76
730.714	378
731.043	267.99
731.372	429.49
731.701	310.12
732.03	328.85
732.359	342.89
732.688	387.36
733.017	352.25
733.346	300.76
733.675	310.12
734.004	415.45
734.332	319.48
734.661	335.87
734.99	375.66
735.318	370.97
735.647	317.14
735.975	122.88
736.304	228.2
736.632	249.27
736.96	279.69
737.289	239.9
737.617	319.48
737.945	333.53
738.273	167.35
738.601	256.29
738.929	223.52
739.257	183.73
739.585	340.55
739.913	335.87
740.241	324.16
740.568	258.63
740.896	176.71
741.224	349.91
741.551	282.03
741.879	275.01
742.206	204.8
742.534	90.11
742.861	211.82
743.188	310.12
743.516	214.16
743.843	214.16
744.17	167.35
744.497	195.43
744.824	230.54
745.151	228.2
745.478	153.31
745.805	115.86
746.132	218.84
746.459	190.75
746.785	230.54
747.112	141.6
747.439	291.4
747.765	172.03
748.092	216.5
748.418	172.03
748.745	118.2
749.071	90.11
749.397	249.27
749.723	221.18
750.05	237.56
750.376	69.05
750.702	312.46
751.028	289.06
751.354	190.75
751.68	235.22
752.006	195.43
752.332	127.56
752.657	183.73
752.983	143.94
753.309	221.18
753.634	216.5
753.96	134.58
754.286	200.12
754.611	242.25
754.936	265.65
755.262	76.07
755.587	45.64
755.912	83.09
756.237	-134.58
756.563	111.18
756.888	216.5
757.213	101.81
757.538	176.71
757.863	78.41
758.188	235.22
758.512	235.22
758.837	265.65
759.162	207.14
759.487	148.62
759.811	258.63
760.136	193.09
760.46	104.15
760.785	99.47
761.109	150.96
761.433	125.22
761.758	167.35
762.082	150.96
762.406	-15.21
762.73	146.28
763.054	113.52
763.378	136.92
763.702	136.92
764.026	87.77
764.35	78.41
764.674	179.05
764.998	186.07
765.321	181.39
765.645	186.07
765.969	80.75
766.292	122.88
766.616	139.26
766.939	120.54
767.263	155.65
767.586	162.67
767.909	1.17
768.232	99.47
768.556	223.52
768.879	181.39
769.202	47.98
769.525	99.47
769.848	167.35
770.171	160.33
770.494	129.9
770.816	-326.5
771.139	36.28
771.462	223.52
771.785	183.73
772.107	47.98
772.43	108.83
772.752	-29.26
773.075	83.09
773.397	120.54
773.719	85.43
774.042	129.9
774.364	108.83
774.686	113.52
775.008	157.99
775.33	132.24
775.652	-26.92
775.974	3.51
776.296	-69.05
776.618	-66.71
776.94	76.07
777.261	94.79
777.583	64.36
777.905	92.45
778.226	40.96
778.548	43.3
778.869	71.39
779.191	22.24
779.512	139.26
779.833	92.45
780.155	106.49
780.476	167.35
780.797	157.99
781.118	29.26
781.439	73.73
781.76	-26.92
782.081	24.58
782.402	146.28
782.723	94.79
783.044	1.17
783.364	24.58
783.685	78.41
784.006	8.19
784.326	62.02
784.647	47.98
784.967	-15.21
785.288	45.64
785.608	167.35
785.928	195.43
786.249	169.69
786.569	176.71
786.889	186.07
787.209	-50.32
787.529	150.96
787.849	52.66
788.169	12.87
788.489	225.86
788.809	59.68
789.128	-3.51
789.448	92.45
789.768	-8.19
790.087	5.85
790.407	104.15
790.726	106.49
791.046	-62.02
791.365	85.43
791.685	143.94
792.004	-17.55
792.323	92.45
792.642	36.28
792.961	24.58
793.28	17.55
793.599	80.75
793.918	104.15
794.237	90.11
794.556	101.81
794.875	17.55
795.194	228.2
795.512	85.43
795.831	69.05
796.15	78.41
796.468	148.62
796.787	8.19
797.105	-8.19
797.423	134.58
797.742	-19.89
798.06	-29.26
798.378	94.79
798.696	76.07
799.014	83.09
799.333	218.84
799.65	33.94
799.968	136.92
800.286	202.46
800.604	17.55
800.922	43.3
801.24	129.9
801.557	92.45
801.875	36.28
802.193	22.24
802.51	101.81
802.827	-64.36
803.145	-45.64
803.462	55
803.78	-3.51
804.097	17.55
804.414	85.43
804.731	-12.87
805.048	134.58
805.365	-15.21
805.682	223.52
805.999	155.65
806.316	-24.58
806.633	-3.51
806.95	73.73
807.266	106.49
807.583	50.32
807.899	1.17
808.216	-1.17
808.533	15.21
808.849	59.68
809.165	10.53
809.482	-31.6
809.798	143.94
810.114	59.68
810.43	-64.36
810.746	-12.87
811.062	45.64
811.378	125.22
811.694	-17.55
812.01	15.21
812.326	-104.15
812.642	64.36
812.958	12.87
813.273	62.02
813.589	97.13
813.905	8.19
814.22	71.39
814.536	129.9
814.851	-24.58
815.166	66.71
815.482	22.24
815.797	36.28
816.112	-33.94
816.427	10.53
816.742	-3.51
817.057	-66.71
817.372	15.21
817.687	59.68
818.002	43.3
818.317	-5.85
818.632	71.39
818.946	22.24
819.261	19.89
819.576	40.96
819.89	8.19
820.205	73.73
820.519	94.79
820.833	57.34
821.148	19.89
821.462	183.73
821.776	71.39
822.09	80.75
822.405	38.62
822.719	94.79
823.033	55
823.347	50.32
823.66	8.19
823.974	80.75
824.288	-3.51
824.602	-80.75
824.915	12.87
825.229	153.31
825.543	8.19
825.856	-38.62
826.17	8.19
826.483	45.64
826.796	113.52
827.11	-5.85
827.423	129.9
827.736	59.68
828.049	55
828.362	33.94
828.675	33.94
828.988	24.58
829.301	5.85
829.614	33.94
829.927	143.94
830.24	17.55
830.552	87.77
830.865	-15.21
831.178	31.6
831.49	141.6
831.803	-1.17
832.115	181.39
832.428	66.71
832.74	76.07
833.052	155.65
833.364	150.96
833.676	-24.58
833.989	52.66
834.301	127.56
834.613	101.81
834.925	-36.28
835.236	-10.53
835.548	78.41
835.86	-71.39
836.172	-401.4
836.483	19.89
836.795	36.28
837.107	111.18
837.418	-80.75
837.73	104.15
838.041	-31.6
838.352	36.28
838.664	19.89
838.975	24.58
839.286	57.34
839.597	3.51
839.908	26.92
840.219	19.89
840.53	-29.26
840.841	66.71
841.152	-12.87
841.463	5.85
841.773	-22.24
842.084	-132.24
842.395	71.39
842.705	45.64
843.016	-104.15
843.326	40.96
843.637	47.98
843.947	-38.62
844.257	106.49
844.568	-57.34
844.878	78.41
845.188	-3.51
845.498	38.62
845.808	122.88
846.118	-57.34
846.428	45.64
846.738	55
847.048	10.53
847.358	-12.87
847.667	92.45
847.977	5.85
848.287	115.86
848.596	-22.24
848.906	83.09
849.215	76.07
849.524	26.92
849.834	52.66
850.143	-38.62
850.452	22.24
850.761	33.94
851.07	33.94
851.379	3.51
851.688	71.39
851.997	55
852.306	50.32
852.615	-10.53
852.924	22.24
853.233	-118.2
853.541	12.87
853.85	50.32
854.158	-33.94
854.467	43.3
854.775	-69.05
855.084	-76.07
855.392	92.45
855.7	3.51
856.009	87.77
856.317	8.19
856.625	-10.53
856.933	45.64
857.241	-59.68
857.549	94.79
857.857	-10.53
858.165	-83.09
858.473	-64.36
858.78	64.36
859.088	-8.19
859.396	22.24
859.703	-115.86
860.011	-31.6
860.318	160.33
860.626	15.21
860.933	-50.32
861.24	69.05
861.547	78.41
861.855	-8.19
862.162	26.92
862.469	-52.66
862.776	52.66
863.083	1.17
863.39	85.43
863.697	132.24
864.003	69.05
864.31	73.73
864.617	-31.6
864.924	-12.87
865.23	47.98
865.537	52.66
865.843	113.52
866.15	101.81
866.456	-24.58
866.762	24.58
867.068	-94.79
867.375	-101.81
867.681	-129.9
867.987	8.19
868.293	40.96
868.599	-22.24
868.905	113.52
869.211	24.58
869.517	24.58
869.822	45.64
870.128	-1.17
870.434	108.83
870.739	-80.75
871.045	40.96
871.35	-3.51
871.656	-38.62
871.961	78.41
872.266	-17.55
872.572	52.66
872.877	-24.58
873.182	87.77
873.487	80.75
873.792	66.71
874.097	-10.53
874.402	-97.13
874.707	-8.19
875.012	101.81
875.317	-12.87
875.621	-5.85
875.926	106.49
876.231	19.89
876.535	106.49
876.84	-38.62
877.144	-17.55
877.448	66.71
877.753	99.47
878.057	-64.36
878.361	15.21
878.665	76.07
878.97	5.85
879.274	-15.21
879.578	-111.18
879.882	97.13
880.185	29.26
880.489	-24.58
880.793	33.94
881.097	47.98
881.4	10.53
881.704	29.26
882.008	-55
882.311	-52.66
882.615	-87.77
882.918	80.75
883.221	19.89
883.525	104.15
883.828	-17.55
884.131	101.81
884.434	-5.85
884.737	-55
885.04	99.47
885.343	-31.6
885.646	43.3
885.949	17.55
886.252	38.62
886.554	129.9
886.857	64.36
887.16	3.51
887.462	111.18
887.765	19.89
888.067	97.13
888.369	5.85
888.672	94.79
888.974	40.96
889.276	-50.32
889.578	-115.86
889.881	87.77
890.183	15.21
890.485	118.2
890.787	-47.98
891.089	120.54
891.39	94.79
891.692	-19.89
891.994	-29.26
892.296	33.94
892.597	-19.89
892.899	-97.13
893.2	-19.89
893.502	43.3
893.803	-52.66
894.104	-55
894.406	12.87
894.707	57.34
895.008	-33.94
895.309	-64.36
895.61	132.24
895.911	1.17
896.212	-3.51
896.513	57.34
896.814	179.05
897.115	132.24
897.416	76.07
897.716	-169.69
898.017	-22.24
898.317	62.02
898.618	15.21
898.918	118.2
899.219	5.85
899.519	106.49
899.819	125.22
900.12	17.55
900.42	73.73
900.72	139.26
901.02	12.87
901.32	69.05
901.62	78.41
901.92	-71.39
902.22	10.53
902.519	78.41
902.819	80.75
903.119	132.24
903.418	-17.55
903.718	71.39
904.018	94.79
904.317	-5.85
904.616	52.66
904.916	5.85
905.215	8.19
905.514	-17.55
905.813	-17.55
906.113	3.51
906.412	26.92
906.711	-76.07
907.01	29.26
907.308	-22.24
907.607	38.62
907.906	-59.68
908.205	10.53
908.503	193.09
908.802	87.77
909.101	38.62
909.399	22.24
909.698	197.78
909.996	45.64
910.294	76.07
910.593	1.17
910.891	73.73
911.189	10.53
911.487	5.85
911.785	-69.05
912.083	-97.13
912.381	52.66
912.679	33.94
912.977	8.19
913.275	36.28
913.572	45.64
913.87	134.58
914.168	50.32
914.465	90.11
914.763	33.94
915.06	108.83
915.358	-1.17
915.655	29.26
915.952	87.77
916.249	3.51
916.547	-76.07
916.844	22.24
917.141	-45.64
917.438	-8.19
917.735	57.34
918.032	33.94
918.328	40.96
918.625	-40.96
918.922	-8.19
919.219	-373.32
919.515	69.05
919.812	31.6
920.108	-5.85
920.405	-50.32
920.701	19.89
920.997	-66.71
921.294	78.41
921.59	-76.07
921.886	-113.52
922.182	62.02
922.478	-1.17
922.774	155.65
923.07	-15.21
923.366	-22.24
923.662	-57.34
923.957	36.28
924.253	26.92
924.549	118.2
924.844	69.05
925.14	33.94
925.435	24.58
925.731	31.6
926.026	125.22
926.322	36.28
926.617	-33.94
926.912	-47.98
927.207	-94.79
927.502	57.34
927.797	111.18
928.092	-24.58
928.387	-3.51
928.682	-19.89
928.977	57.34
929.272	12.87
929.566	26.92
929.861	-57.34
930.156	-71.39
930.45	10.53
930.745	-66.71
931.039	17.55
931.333	-434.17
931.628	-43.3
931.922	47.98
932.216	113.52
932.51	-76.07
932.804	-94.79
933.098	10.53
933.392	1.17
933.686	76.07
933.98	-10.53
934.274	118.2
934.568	-8.19
934.861	80.75
935.155	38.62
935.449	-15.21
935.742	12.87
936.036	-73.73
936.329	64.36
936.622	29.26
936.916	-24.58
937.209	-223.52
937.502	-120.54
937.795	-22.24
938.088	10.53
938.381	-38.62
938.674	-40.96
938.967	43.3
939.26	-179.05
939.553	-176.71
939.845	31.6
940.138	55
940.431	83.09
940.723	-31.6
941.016	-36.28
941.308	40.96
941.601	24.58
941.893	45.64
942.185	-47.98
942.478	-45.64
942.77	127.56
943.062	-62.02
943.354	106.49
943.646	120.54
943.938	76.07
944.23	12.87
944.522	29.26
944.813	-5.85
945.105	85.43
945.397	-40.96
945.688	33.94
945.98	80.75
946.271	-1.17
946.563	132.24
946.854	148.62
947.145	83.09
947.437	78.41
947.728	80.75
948.019	-45.64
948.31	-165.01
948.601	52.66
948.892	155.65
949.183	78.41
949.474	62.02
949.765	50.32
950.056	106.49
950.346	45.64
950.637	43.3
950.927	12.87
951.218	-141.6
951.508	92.45
951.799	-22.24
952.089	12.87
952.38	62.02
952.67	-38.62
952.96	155.65
953.25	-146.28
953.54	-36.28
953.83	22.24
954.12	78.41
954.41	87.77
954.7	80.75
954.99	122.88
955.279	90.11
955.569	80.75
955.859	-17.55
956.148	50.32
956.438	24.58
956.727	59.68
957.017	-5.85
957.306	62.02
957.595	-22.24
957.885	64.36
958.174	-66.71
958.463	-181.39
958.752	-57.34
959.041	-230.54
959.33	-24.58
959.619	78.41
959.908	73.73
960.196	12.87
960.485	169.69
960.774	-62.02
961.062	50.32
961.351	-52.66
961.639	-47.98
961.928	-45.64
962.216	-45.64
962.504	8.19
962.793	29.26
963.081	-90.11
963.369	57.34
963.657	-45.64
963.945	22.24
964.233	33.94
964.521	-47.98
964.809	38.62
965.097	-17.55
965.385	-3.51
965.672	-38.62
965.96	38.62
966.247	5.85
966.535	1.17
966.822	78.41
967.11	-31.6
967.397	-101.81
967.685	-71.39
967.972	24.58
968.259	-5.85
968.546	-5.85
968.833	94.79
969.12	-45.64
969.407	3.51
969.694	8.19
969.981	113.52
970.268	-69.05
970.554	5.85
970.841	-10.53
971.128	17.55
971.414	-40.96
971.701	40.96
971.987	69.05
972.274	1.17
972.56	-17.55
972.846	-19.89
973.132	-1.17
973.418	10.53
973.705	-26.92
973.991	71.39
974.277	141.6
974.563	59.68
974.848	113.52
975.134	-3.51
975.42	50.32
975.706	-59.68
975.991	64.36
976.277	29.26
976.562	40.96
976.848	22.24
977.133	64.36
977.419	45.64
977.704	-8.19
977.989	-50.32
978.274	113.52
978.56	-22.24
978.845	143.94
979.13	-26.92
979.415	-174.37
979.7	76.07
979.984	36.28
980.269	36.28
980.554	76.07
980.839	22.24
981.123	99.47
981.408	-40.96
981.692	-17.55
981.977	90.11
982.261	31.6
982.545	-15.21
982.83	40.96
983.114	-12.87
983.398	-19.89
983.682	-3.51
983.966	87.77
984.25	50.32
984.534	40.96
984.818	15.21
985.102	64.36
985.386	-8.19
985.669	59.68
985.953	31.6
986.236	97.13
986.52	71.39
986.803	122.88
987.087	-3.51
987.37	55
987.654	-3.51
987.937	-118.2
988.22	-8.19
988.503	-10.53
988.786	40.96
989.069	31.6
989.352	64.36
989.635	-22.24
989.918	36.28
990.201	55
990.483	52.66
990.766	83.09
991.049	-62.02
991.331	33.94
991.614	87.77
991.896	-127.56
992.179	-12.87
992.461	22.24
992.743	17.55
993.025	22.24
993.307	-29.26
993.59	115.86
993.872	80.75
994.154	73.73
994.436	26.92
994.717	87.77
994.999	76.07
995.281	115.86
995.563	10.53
995.844	17.55
996.126	10.53
996.407	38.62
996.689	-17.55
996.97	38.62
997.252	29.26
997.533	94.79
997.814	-31.6
998.095	47.98
998.376	19.89
998.657	-69.05
998.938	1.17
999.219	26.92
999.5	71.39
999.781	15.21
1000.062	111.18
1000.343	90.11
1000.623	-50.32
1000.904	-1.17
1001.184	45.64
1001.465	108.83
1001.745	78.41
1002.026	129.9
1002.306	26.92
1002.586	94.79
1002.866	129.9
1003.147	38.62
1003.427	1.17
1003.707	-36.28
1003.987	33.94
1004.267	38.62
1004.546	94.79
1004.826	57.34
1005.106	104.15
1005.386	101.81
1005.665	47.98
1005.945	5.85
1006.224	38.62
1006.504	-111.18
1006.783	10.53
1007.063	-97.13
1007.342	8.19
1007.621	-101.81
1007.9	5.85
1008.179	1.17
1008.458	106.49
1008.737	-108.83
1009.016	-289.06
1009.295	87.77
1009.574	19.89
1009.853	-57.34
1010.131	33.94
1010.41	-73.73
1010.689	57.34
1010.967	52.66
1011.246	76.07
1011.524	101.81
1011.802	-36.28
1012.081	-12.87
1012.359	92.45
1012.637	57.34
1012.915	15.21
1013.193	71.39
1013.471	-5.85
1013.749	57.34
1014.027	47.98
1014.305	-132.24
1014.583	59.68
1014.86	36.28
1015.138	104.15
1015.416	62.02
1015.693	-76.07
1015.971	101.81
1016.248	125.22
1016.525	85.43
1016.803	17.55
1017.08	-92.45
1017.357	-92.45
1017.634	92.45
1017.911	5.85
1018.188	-22.24
1018.465	-22.24
1018.742	-22.24
