Data from Subt12_11-19-08-219.txt Node
Date: Wed Feb 15 11:19:08 EST 2023
User: Wilson Lab
Spectrometer: FLMS03149
Trigger mode: 0
Integration Time (sec): 2.000000E0
Scans to average: 1
Electric dark correction enabled: true
Nonlinearity correction enabled: false
Boxcar width: 0
XAxis mode: Wavelengths
Number of Pixels in Spectrum: 2048
>>>>>Begin Spectral Data<<<<<
338.754	-7.9
339.138	-7.9
339.521	-7.9
339.905	-71.09
340.288	-94.5
340.671	34.23
341.055	-7.9
341.438	17.85
341.821	-26.62
342.204	-43.01
342.587	50.61
342.97	57.64
343.353	-26.62
343.736	104.45
344.119	-120.25
344.502	-66.41
344.885	-12.58
345.268	15.51
345.65	6.14
346.033	-26.62
346.416	43.59
346.798	27.21
347.181	-24.28
347.563	-52.37
347.946	-26.62
348.328	8.48
348.71	-43.01
349.093	10.82
349.475	-71.09
349.857	-59.39
350.239	-21.94
350.621	-5.56
351.003	-40.67
351.385	-17.26
351.767	45.93
352.149	-117.9
352.531	-7.9
352.913	13.17
353.295	-31.3
353.676	34.23
354.058	17.85
354.44	15.51
354.821	-120.25
355.203	-28.96
355.584	-0.88
355.966	8.48
356.347	-14.92
356.729	95.08
357.11	-7.9
357.491	-17.26
357.873	1.46
358.254	50.61
358.635	24.87
359.016	57.64
359.397	67
359.778	24.87
360.159	-17.26
360.54	-19.6
360.921	20.19
361.301	57.64
361.682	-5.56
362.063	62.32
362.444	24.87
362.824	-7.9
363.205	52.95
363.585	52.95
363.966	78.7
364.346	13.17
364.727	109.13
365.107	22.53
365.487	27.21
365.867	31.89
366.248	104.45
366.628	88.06
367.008	15.51
367.388	57.64
367.768	17.85
368.148	29.55
368.528	-7.9
368.908	-52.37
369.288	71.68
369.667	29.55
370.047	20.19
370.427	-59.39
370.806	-40.67
371.186	45.93
371.566	-45.35
371.945	20.19
372.325	-75.77
372.704	-47.69
373.083	29.55
373.463	-31.3
373.842	20.19
374.221	-113.22
374.6	-61.73
374.979	10.82
375.358	36.57
375.737	57.64
376.116	-26.62
376.495	52.95
376.874	1.46
377.253	38.91
377.632	90.4
378.011	85.72
378.389	83.38
378.768	38.91
379.147	-68.75
379.525	22.53
379.904	-78.12
380.282	-3.22
380.661	-40.67
381.039	-33.65
381.417	-7.9
381.796	-28.96
382.174	-33.65
382.552	69.34
382.93	106.79
383.308	10.82
383.686	-7.9
384.064	45.93
384.442	10.82
384.82	17.85
385.198	57.64
385.576	20.19
385.954	20.19
386.331	-45.35
386.709	50.61
387.087	-40.67
387.464	99.77
387.842	-64.07
388.219	-3.22
388.597	-64.07
388.974	78.7
389.351	-94.5
389.729	109.13
390.106	-19.6
390.483	29.55
390.86	-89.82
391.237	-21.94
391.614	31.89
391.991	3.8
392.368	109.13
392.745	20.19
393.122	27.21
393.499	69.34
393.876	-35.99
394.253	-24.28
394.629	10.82
395.006	13.17
395.382	62.32
395.759	15.51
396.135	-0.88
396.512	-7.9
396.888	15.51
397.265	-19.6
397.641	144.24
398.017	24.87
398.393	67
398.77	17.85
399.146	55.3
399.522	22.53
399.898	59.98
400.274	-64.07
400.65	20.19
401.026	22.53
401.401	15.51
401.777	-75.77
402.153	-110.88
402.529	-17.26
402.904	41.25
403.28	-43.01
403.655	-52.37
404.031	62.32
404.406	38.91
404.782	43.59
405.157	169.98
405.532	15.51
405.908	-52.37
406.283	-73.43
406.658	-71.09
407.033	15.51
407.408	83.38
407.783	8.48
408.158	-115.56
408.533	74.02
408.908	13.17
409.283	-64.07
409.658	-50.03
410.033	-57.05
410.407	97.42
410.782	-31.3
411.157	15.51
411.531	31.89
411.906	-38.33
412.28	69.34
412.654	-85.14
413.029	116.15
413.403	43.59
413.777	-40.67
414.152	22.53
414.526	85.72
414.9	59.98
415.274	83.38
415.648	17.85
416.022	62.32
416.396	1.46
416.77	15.51
417.144	-35.99
417.518	6.14
417.891	-5.56
418.265	-59.39
418.639	3.8
419.012	67
419.386	-71.09
419.759	-3.22
420.133	-103.86
420.506	27.21
420.88	29.55
421.253	-21.94
421.626	-61.73
421.999	22.53
422.373	-31.3
422.746	-40.67
423.119	-85.14
423.492	-64.07
423.865	17.85
424.238	83.38
424.611	-38.33
424.984	92.74
425.356	6.14
425.729	62.32
426.102	22.53
426.474	-87.48
426.847	-19.6
427.22	92.74
427.592	74.02
427.965	97.42
428.337	-24.28
428.709	-17.26
429.082	6.14
429.454	-5.56
429.826	-7.9
430.198	120.83
430.571	-110.88
430.943	22.53
431.315	67
431.687	15.51
432.059	74.02
432.431	85.72
432.802	-14.92
433.174	24.87
433.546	-47.69
433.918	-108.54
434.289	57.64
434.661	-54.71
435.032	-24.28
435.404	52.95
435.775	-66.41
436.147	-17.26
436.518	6.14
436.89	125.51
437.261	27.21
437.632	15.51
438.003	76.36
438.374	50.61
438.745	-10.24
439.116	55.3
439.487	41.25
439.858	-3.22
440.229	-7.9
440.6	-7.9
440.971	8.48
441.342	-10.24
441.712	64.66
442.083	-12.58
442.454	6.14
442.824	55.3
443.195	-45.35
443.565	118.49
443.936	-10.24
444.306	-57.05
444.676	95.08
445.047	-40.67
445.417	59.98
445.787	95.08
446.157	-5.56
446.527	34.23
446.897	17.85
447.267	186.37
447.637	6.14
448.007	-0.88
448.377	-5.56
448.747	83.38
449.116	74.02
449.486	-5.56
449.856	59.98
450.225	-19.6
450.595	13.17
450.964	20.19
451.334	71.68
451.703	38.91
452.073	29.55
452.442	102.11
452.811	24.87
453.18	50.61
453.55	-17.26
453.919	38.91
454.288	-19.6
454.657	102.11
455.026	-14.92
455.395	-73.43
455.764	95.08
456.132	-7.9
456.501	29.55
456.87	-47.69
457.239	34.23
457.607	-31.3
457.976	-21.94
458.344	-7.9
458.713	174.66
459.081	134.87
459.45	27.21
459.818	-0.88
460.186	48.27
460.555	27.21
460.923	34.23
461.291	-71.09
461.659	22.53
462.027	43.59
462.395	-12.58
462.763	-5.56
463.131	83.38
463.499	78.7
463.867	-14.92
464.235	-5.56
464.602	85.72
464.97	97.42
465.338	118.49
465.705	15.51
466.073	-52.37
466.44	43.59
466.808	57.64
467.175	64.66
467.542	45.93
467.91	111.47
468.277	144.24
468.644	-21.94
469.011	3.8
469.378	69.34
469.745	52.95
470.112	151.26
470.479	-0.88
470.846	24.87
471.213	134.87
471.58	83.38
471.947	48.27
472.313	1.46
472.68	22.53
473.047	-7.9
473.413	97.42
473.78	34.23
474.146	81.04
474.513	-7.9
474.879	24.87
475.245	85.72
475.612	130.19
475.978	111.47
476.344	146.58
476.71	45.93
477.076	57.64
477.442	15.51
477.808	10.82
478.174	13.17
478.54	34.23
478.906	132.53
479.272	134.87
479.638	-12.58
480.003	-21.94
480.369	36.57
480.734	81.04
481.1	20.19
481.466	36.57
481.831	36.57
482.196	-31.3
482.562	31.89
482.927	10.82
483.292	-40.67
483.658	120.83
484.023	-5.56
484.388	71.68
484.753	29.55
485.118	-5.56
485.483	10.82
485.848	3.8
486.213	36.57
486.578	-26.62
486.942	67
487.307	10.82
487.672	29.55
488.036	24.87
488.401	-35.99
488.765	29.55
489.13	43.59
489.494	-7.9
489.859	162.96
490.223	6.14
490.587	1.46
490.952	-38.33
491.316	123.17
491.68	20.19
492.044	-61.73
492.408	20.19
492.772	45.93
493.136	34.23
493.5	34.23
493.864	78.7
494.228	113.81
494.591	-26.62
494.955	-14.92
495.319	-19.6
495.682	132.53
496.046	-12.58
496.409	104.45
496.773	-64.07
497.136	48.27
497.5	29.55
497.863	74.02
498.226	57.64
498.589	85.72
498.953	109.13
499.316	52.95
499.679	29.55
500.042	-35.99
500.405	20.19
500.768	50.61
501.131	50.61
501.494	24.87
501.856	67
502.219	34.23
502.582	52.95
502.944	67
503.307	-5.56
503.669	141.89
504.032	-10.24
504.394	88.06
504.757	-73.43
505.119	90.4
505.481	20.19
505.844	8.48
506.206	113.81
506.568	38.91
506.93	125.51
507.292	-12.58
507.654	95.08
508.016	34.23
508.378	62.32
508.74	106.79
509.102	45.93
509.463	-96.84
509.825	36.57
510.187	139.55
510.548	-7.9
510.91	104.45
511.272	27.21
511.633	-12.58
511.994	111.47
512.356	95.08
512.717	179.34
513.078	130.19
513.44	41.25
513.801	-10.24
514.162	71.68
514.523	123.17
514.884	90.4
515.245	90.4
515.606	76.36
515.967	3.8
516.328	48.27
516.688	92.74
517.049	130.19
517.41	141.89
517.77	20.19
518.131	43.59
518.491	81.04
518.852	59.98
519.212	29.55
519.573	15.51
519.933	106.79
520.293	74.02
520.654	62.32
521.014	90.4
521.374	69.34
521.734	139.55
522.094	31.89
522.454	41.25
522.814	69.34
523.174	67
523.534	151.26
523.894	36.57
524.253	193.39
524.613	209.77
524.973	71.68
525.332	198.07
525.692	88.06
526.051	148.92
526.411	127.85
526.77	64.66
527.13	127.85
527.489	151.26
527.848	109.13
528.207	205.09
528.567	244.88
528.926	191.05
529.285	202.75
529.644	312.75
530.003	265.94
530.362	329.14
530.72	455.53
531.079	457.87
531.438	411.06
531.797	507.02
532.155	399.35
532.514	542.13
532.873	565.53
533.231	595.96
533.59	862.78
533.948	4666.15
534.306	28907.08
534.665	51830.29
535.023	56237.51
535.381	54109.97
535.739	49468.69
536.097	31025.26
536.456	17873.79
536.814	11453.7
537.172	7596.5
537.529	3678.44
537.887	1649.2
538.245	1007.89
538.603	720.01
538.961	577.23
539.318	2077.52
539.676	4312.73
540.034	5873.87
540.391	5525.13
540.749	3706.53
541.106	2791.38
541.463	1759.21
541.821	1373.02
542.178	1490.04
542.535	928.31
542.892	525.74
543.25	291.69
543.607	294.03
543.964	174.66
544.321	230.84
544.678	844.06
545.035	872.14
545.391	1263.01
545.748	1464.3
546.105	1244.29
546.462	820.65
546.818	670.86
547.175	631.07
547.531	411.06
547.888	382.97
548.244	251.9
548.601	261.26
548.957	247.22
549.313	298.71
549.67	326.8
550.026	301.05
550.382	237.86
550.738	333.82
551.094	357.22
551.45	373.61
551.806	539.79
552.162	511.7
552.518	551.49
552.874	436.8
553.229	649.79
553.585	663.83
553.941	631.07
554.296	794.9
554.652	720.01
555.007	731.71
555.363	776.18
555.718	743.41
556.074	876.82
556.429	984.49
556.784	914.27
557.139	1078.11
557.495	1040.66
557.85	1136.62
558.205	1302.8
558.56	1314.5
558.915	1340.25
559.27	1363.65
559.624	1424.51
559.979	1597.71
560.334	1630.48
560.689	1705.37
561.043	1806.02
561.398	1995.6
561.753	2114.97
562.107	2154.76
562.462	2346.68
562.816	2405.19
563.17	2576.05
563.525	2641.59
563.879	2880.32
564.233	2760.95
564.587	3135.44
564.941	3245.45
565.295	3633.97
565.649	3772.07
566.003	3783.77
566.357	4179.32
566.711	4235.49
567.065	4481.25
567.419	4750.41
567.773	4921.27
568.126	5305.12
568.48	5665.56
568.833	5808.33
569.187	6292.82
569.54	6505.81
569.894	6969.24
570.247	7299.25
570.6	7636.29
570.954	8221.42
571.307	8338.45
571.66	8715.28
572.013	9117.85
572.366	9506.38
572.719	10243.65
573.072	10597.07
573.425	11039.43
573.778	11147.09
574.131	12015.43
574.484	12691.85
574.836	13412.73
575.189	14119.57
575.542	14557.25
575.894	15477.08
576.247	16181.59
576.599	16645.01
576.952	17063.97
577.304	18199.13
577.656	18964.48
578.009	19694.73
578.361	20670.73
578.713	21279.27
579.065	22011.86
579.417	23029.99
579.769	24195.58
580.121	25005.41
580.473	26049.28
580.825	27095.5
581.177	27743.83
581.528	28307.9
581.88	29576.47
582.232	30582.9
582.584	31336.55
582.935	32134.68
583.287	33398.57
583.638	34496.28
583.989	35636.12
584.341	36541.91
584.692	37829.2
585.043	39032.24
585.395	39600.99
585.746	40352.3
586.097	41115.31
586.448	42081.95
586.799	43231.16
587.15	44452.92
587.501	45562.33
587.852	46243.43
588.203	47481.57
588.553	48125.22
588.904	48773.55
589.255	48906.96
589.605	49574.01
589.956	50311.28
590.306	51600.91
590.657	52267.97
591.007	52511.38
591.358	53332.91
591.708	52869.48
592.058	53555.26
592.408	54545.31
592.759	54683.4
593.109	55310.66
593.459	55486.2
593.809	55514.29
594.159	56352.2
594.509	55701.53
594.859	55289.6
595.208	56129.85
595.558	56537.1
595.908	56656.47
596.258	56087.72
596.607	57304.8
596.957	56832.01
597.306	57014.57
597.656	57272.03
598.005	57632.47
598.354	57019.25
598.704	56562.85
599.053	57204.16
599.402	57314.16
599.751	57648.86
600.1	57386.72
600.45	57314.16
600.799	57194.79
601.148	56609.66
601.496	57009.89
601.845	56621.36
602.194	56801.58
602.543	57073.09
602.892	56710.3
603.24	56218.79
603.589	56483.27
603.937	56417.74
604.286	56211.77
604.634	55310.66
604.983	55860.69
605.331	55350.45
605.679	54919.79
606.028	55200.66
606.376	55025.12
606.724	54725.53
607.072	54180.18
607.42	54264.44
607.768	53538.88
608.116	53393.76
608.464	53258.01
608.812	52925.66
609.16	52499.68
609.507	52010.51
609.855	51647.72
610.203	51004.08
610.55	50983.01
610.898	50493.84
611.245	49293.14
611.593	49562.31
611.94	49964.88
612.288	48190.75
612.635	47378.59
612.982	46952.61
613.329	46496.2
613.676	45927.45
614.024	45592.76
614.371	44918.68
614.718	45351.68
615.064	43888.85
615.411	43369.25
615.758	42730.28
616.105	42229.41
616.452	42060.89
616.798	40656.57
617.145	40532.52
617.492	39916.96
617.838	39315.44
618.185	39151.6
618.531	37864.31
618.877	38074.96
619.224	37536.63
619.57	36897.67
619.916	35982.52
620.263	35458.24
620.609	35392.7
620.955	35025.24
621.301	33602.19
621.647	33641.98
621.993	33054.51
622.339	32268.09
622.684	32366.39
623.03	31884.24
623.376	31327.19
623.722	30917.6
624.067	30271.61
624.413	29880.74
624.758	29396.25
625.104	28761.97
625.449	29059.21
625.795	28106.62
626.14	27238.28
626.485	26809.96
626.83	26678.89
627.175	26596.97
627.521	25775.44
627.866	25166.9
628.211	25042.85
628.556	25272.23
628.901	24607.51
629.245	24174.52
629.59	24216.65
629.935	23814.07
630.28	22838.07
630.624	22667.21
630.969	22522.1
631.314	22182.72
631.658	21644.4
632.002	21173.95
632.347	20556.05
632.691	20862.66
633.036	20942.24
633.38	20104.32
633.724	20141.77
634.068	19598.77
634.412	18983.21
634.756	18824.05
635.1	18842.78
635.444	18580.64
635.788	18178.06
636.132	17843.37
636.476	17876.13
636.82	17562.5
637.163	17450.16
637.507	17066.31
637.85	17258.23
638.194	17176.31
638.537	16843.96
638.881	16670.76
639.224	16607.56
639.568	16357.13
639.911	15793.06
640.254	16006.05
640.597	15835.19
640.94	15587.09
641.284	15374.1
641.627	15271.12
641.97	14917.7
642.312	14819.39
642.655	14880.25
642.998	14110.21
643.341	14409.8
643.684	14416.82
644.026	14547.89
644.369	13883.18
644.712	13777.86
645.054	13834.03
645.396	13698.28
645.739	13794.24
646.081	13522.74
646.424	13241.87
646.766	13260.6
647.108	13174
647.45	13199.74
647.792	13138.89
648.134	12731.64
648.476	12523.33
648.818	12392.26
649.16	12254.17
649.502	12537.37
649.844	12591.2
650.186	12104.37
650.527	11917.13
650.869	11987.35
651.211	12045.86
651.552	11931.17
651.894	11687.76
652.235	11280.5
652.576	11341.36
652.918	11191.56
653.259	11060.49
653.6	11392.85
653.942	11009
654.283	11259.44
654.624	11069.86
654.965	10927.08
655.306	10702.39
655.647	10887.29
655.988	10550.26
656.328	10550.26
656.669	10253.01
657.01	10416.85
657.351	10021.3
657.691	9859.8
658.032	10133.64
658.372	9953.42
658.713	9553.19
659.053	9850.44
659.394	9438.5
659.734	9478.29
660.074	9508.72
660.414	9363.61
660.755	9368.29
661.095	9148.28
661.435	9120.19
661.775	8982.1
662.115	9040.61
662.455	8682.51
662.794	8825.28
663.134	8792.51
663.474	8551.44
663.814	8443.78
664.153	8303.34
664.493	8317.39
664.833	8132.48
665.172	8090.35
665.511	7863.32
665.851	7835.24
666.19	7746.3
666.529	7591.82
666.869	7772.04
667.208	7725.23
667.547	7346.06
667.886	7463.09
668.225	7348.4
668.564	7186.91
668.903	7135.42
669.242	7020.73
669.581	6943.49
669.92	6805.4
670.258	6707.1
670.597	6597.09
670.936	6765.61
671.274	6459
671.613	6585.39
671.951	6400.49
672.29	6341.97
672.628	6253.03
672.966	6793.7
673.304	5892.59
673.643	5986.21
673.981	5969.83
674.319	5752.16
674.657	5883.23
674.995	5761.52
675.333	5880.89
675.671	5728.75
676.009	5375.33
676.346	5422.14
676.684	5464.27
677.022	5291.07
677.36	5368.31
677.697	5038.3
678.035	5010.21
678.372	5007.87
678.71	4916.59
679.047	4918.93
679.384	4879.14
679.722	4691.9
680.059	4551.46
680.396	4804.24
680.733	4368.9
681.07	4490.61
681.407	4429.76
681.744	4406.35
682.081	4392.31
682.418	4254.22
682.755	4146.55
683.092	4069.31
683.428	4123.15
683.765	3952.29
684.102	3959.31
684.438	3858.67
684.775	3781.43
685.111	3760.36
685.447	3821.22
685.784	3751
686.12	3465.46
686.456	3664.4
686.793	3538.01
687.129	3343.75
687.465	3481.84
687.801	3343.75
688.137	3310.98
688.473	3254.81
688.809	3203.32
689.144	3165.87
689.48	3105.01
689.816	3135.44
690.152	3069.91
690.487	3086.29
690.823	2852.24
691.158	2826.49
691.494	2887.34
691.829	2723.51
692.165	2770.32
692.5	2756.27
692.835	2688.4
693.17	2634.57
693.506	2674.35
693.841	2554.99
694.176	2522.22
694.511	2529.24
694.846	2351.36
695.181	2428.6
695.515	2459.03
695.85	2367.74
696.185	2360.72
696.52	2262.42
696.854	2229.65
697.189	2339.66
697.523	2152.42
697.858	2276.46
698.192	2143.05
698.527	2028.37
698.861	2114.97
699.195	2086.88
699.53	1925.38
699.864	1864.53
700.198	1871.55
700.532	1934.75
700.866	1890.28
701.2	1890.28
701.534	1719.42
701.868	1653.88
702.201	1614.09
702.535	1681.97
702.869	1681.97
703.203	1679.63
703.536	1731.12
703.87	1564.94
704.203	1548.56
704.537	1660.9
704.87	1473.66
705.203	1490.04
705.537	1504.09
705.87	1468.98
706.203	1525.15
706.536	1373.02
706.869	1536.85
707.202	1412.81
707.535	1373.02
707.868	1471.32
708.201	1309.82
708.534	1321.52
708.867	1368.34
709.199	1426.85
709.532	1349.61
709.865	1246.63
710.197	1415.15
710.53	1279.4
710.862	1169.39
711.195	1307.48
711.527	1246.63
711.859	1223.22
712.191	1117.9
712.524	1131.94
712.856	1136.62
713.188	1255.99
713.52	1230.24
713.852	1124.92
714.184	1085.13
714.516	1181.09
714.847	1218.54
715.179	1050.02
715.511	1171.73
715.843	998.53
716.174	1153.01
716.506	1176.41
716.837	993.85
717.169	1087.47
717.5	1014.91
717.832	961.08
718.163	991.51
718.494	923.63
718.825	923.63
719.156	949.38
719.488	982.15
719.819	963.42
720.15	963.42
720.48	954.06
720.811	830.01
721.142	799.59
721.473	921.29
721.804	1014.91
722.134	815.97
722.465	734.05
722.796	797.24
723.126	886.19
723.457	797.24
723.787	923.63
724.117	811.29
724.448	778.52
724.778	729.37
725.108	876.82
725.438	827.67
725.768	729.37
726.098	731.71
726.428	745.75
726.758	771.5
727.088	682.56
727.418	745.75
727.748	839.37
728.078	687.24
728.407	736.39
728.737	666.17
729.066	691.92
729.396	677.88
729.725	675.54
730.055	827.67
730.384	670.86
730.714	626.39
731.043	586.6
731.372	619.36
731.701	600.64
732.03	602.98
732.359	647.45
732.688	626.39
733.017	469.57
733.346	492.98
733.675	551.49
734.004	544.47
734.332	443.82
734.661	450.85
734.99	621.7
735.318	610
735.647	469.57
735.975	661.49
736.304	474.25
736.632	439.14
736.96	516.38
737.289	577.23
737.617	574.89
737.945	420.42
738.273	570.21
738.601	577.23
738.929	476.59
739.257	532.76
739.585	581.92
739.913	542.13
740.241	537.45
740.568	418.08
740.896	427.44
741.224	460.21
741.551	448.51
741.879	392.33
742.206	336.16
742.534	457.87
742.861	366.59
743.188	420.42
743.516	455.53
743.843	439.14
744.17	427.44
744.497	385.31
744.824	282.33
745.151	368.93
745.478	275.31
745.805	354.88
746.132	366.59
746.459	492.98
746.785	371.27
747.112	315.09
747.439	455.53
747.765	408.72
748.092	401.69
748.418	326.8
748.745	401.69
749.071	392.33
749.397	359.56
749.723	324.46
750.05	317.44
750.376	352.54
750.702	270.62
751.028	298.71
751.354	345.52
751.68	343.18
752.006	331.48
752.332	256.58
752.657	275.31
752.983	247.22
753.309	275.31
753.634	265.94
753.96	397.01
754.286	258.92
754.611	310.41
754.936	319.78
755.262	279.99
755.587	331.48
755.912	317.44
756.237	343.18
756.563	151.26
756.888	298.71
757.213	240.2
757.538	209.77
757.863	270.62
758.188	184.02
758.512	214.45
758.837	251.9
759.162	132.53
759.487	235.52
759.811	322.12
760.136	240.2
760.46	287.01
760.785	165.3
761.109	221.47
761.433	209.77
761.758	251.9
762.082	205.09
762.406	298.71
762.73	251.9
763.054	200.41
763.378	251.9
763.702	317.44
764.026	141.89
764.35	188.71
764.674	205.09
764.998	146.58
765.321	123.17
765.645	226.15
765.969	141.89
766.292	165.3
766.616	172.32
766.939	174.66
767.263	127.85
767.586	137.21
767.909	294.03
768.232	235.52
768.556	209.77
768.879	195.73
769.202	214.45
769.525	202.75
769.848	146.58
770.171	216.79
770.494	141.89
770.816	169.98
771.139	134.87
771.462	186.37
771.785	132.53
772.107	109.13
772.43	179.34
772.752	162.96
773.075	52.95
773.397	174.66
773.719	74.02
774.042	15.51
774.364	160.62
774.686	148.92
775.008	158.28
775.33	193.39
775.652	167.64
775.974	141.89
776.296	205.09
776.618	111.47
776.94	74.02
777.261	153.6
777.583	230.84
777.905	146.58
778.226	177
778.548	55.3
778.869	38.91
779.191	-24.28
779.512	55.3
779.833	144.24
780.155	113.81
780.476	62.32
780.797	132.53
781.118	235.52
781.439	155.94
781.76	90.4
782.081	116.15
782.402	90.4
782.723	179.34
783.044	106.79
783.364	125.51
783.685	169.98
784.006	116.15
784.326	95.08
784.647	144.24
784.967	111.47
785.288	118.49
785.608	134.87
785.928	62.32
786.249	71.68
786.569	104.45
786.889	59.98
787.209	172.32
787.529	97.42
787.849	83.38
788.169	113.81
788.489	151.26
788.809	62.32
789.128	92.74
789.448	76.36
789.768	15.51
790.087	174.66
790.407	36.57
790.726	113.81
791.046	85.72
791.365	55.3
791.685	106.79
792.004	71.68
792.323	137.21
792.642	24.87
792.961	27.21
793.28	20.19
793.599	78.7
793.918	106.79
794.237	-0.88
794.556	200.41
794.875	76.36
795.194	120.83
795.512	3.8
795.831	144.24
796.15	88.06
796.468	20.19
796.787	-7.9
797.105	-66.41
797.423	17.85
797.742	137.21
798.06	118.49
798.378	127.85
798.696	97.42
799.014	99.77
799.333	36.57
799.65	-24.28
799.968	59.98
800.286	71.68
800.604	59.98
800.922	57.64
801.24	130.19
801.557	48.27
801.875	36.57
802.193	34.23
802.51	48.27
802.827	45.93
803.145	76.36
803.462	22.53
803.78	102.11
804.097	62.32
804.414	45.93
804.731	43.59
805.048	-10.24
805.365	167.64
805.682	22.53
805.999	-7.9
806.316	55.3
806.633	118.49
806.95	74.02
807.266	83.38
807.583	81.04
807.899	45.93
808.216	139.55
808.533	50.61
808.849	31.89
809.165	36.57
809.482	198.07
809.798	48.27
810.114	137.21
810.43	153.6
810.746	113.81
811.062	99.77
811.378	62.32
811.694	59.98
812.01	134.87
812.326	-31.3
812.642	-38.33
812.958	-80.46
813.273	10.82
813.589	-24.28
813.905	31.89
814.22	85.72
814.536	76.36
814.851	146.58
815.166	24.87
815.482	88.06
815.797	71.68
816.112	76.36
816.427	116.15
816.742	69.34
817.057	13.17
817.372	3.8
817.687	104.45
818.002	160.62
818.317	-0.88
818.632	88.06
818.946	97.42
819.261	-26.62
819.576	85.72
819.89	-3.22
820.205	-3.22
820.519	20.19
820.833	71.68
821.148	-26.62
821.462	78.7
821.776	-43.01
822.09	6.14
822.405	-14.92
822.719	-26.62
823.033	-31.3
823.347	34.23
823.66	-38.33
823.974	59.98
824.288	-31.3
824.602	-80.46
824.915	55.3
825.229	-3.22
825.543	41.25
825.856	-10.24
826.17	162.96
826.483	130.19
826.796	-5.56
827.11	-31.3
827.423	67
827.736	113.81
828.049	52.95
828.362	111.47
828.675	59.98
828.988	-40.67
829.301	43.59
829.614	-38.33
829.927	-92.16
830.24	88.06
830.552	-71.09
830.865	31.89
831.178	113.81
831.49	6.14
831.803	57.64
832.115	-7.9
832.428	71.68
832.74	-12.58
833.052	17.85
833.364	48.27
833.676	6.14
833.989	74.02
834.301	102.11
834.613	41.25
834.925	38.91
835.236	92.74
835.548	41.25
835.86	29.55
836.172	148.92
836.483	52.95
836.795	52.95
837.107	13.17
837.418	10.82
837.73	3.8
838.041	3.8
838.352	64.66
838.664	27.21
838.975	1.46
839.286	-35.99
839.597	-59.39
839.908	13.17
840.219	81.04
840.53	1.46
840.841	48.27
841.152	-24.28
841.463	-38.33
841.773	41.25
842.084	29.55
842.395	132.53
842.705	-101.52
843.016	52.95
843.326	64.66
843.637	43.59
843.947	67
844.257	-12.58
844.568	3.8
844.878	-96.84
845.188	-14.92
845.498	-17.26
845.808	-47.69
846.118	22.53
846.428	-5.56
846.738	36.57
847.048	52.95
847.358	-12.58
847.667	3.8
847.977	-10.24
848.287	-14.92
848.596	31.89
848.906	88.06
849.215	74.02
849.524	-38.33
849.834	-50.03
850.143	-28.96
850.452	81.04
850.761	-31.3
851.07	-28.96
851.379	-33.65
851.688	15.51
851.997	-5.56
852.306	-0.88
852.615	27.21
852.924	-26.62
853.233	-10.24
853.541	99.77
853.85	31.89
854.158	97.42
854.467	67
854.775	-10.24
855.084	-5.56
855.392	1.46
855.7	90.4
856.009	10.82
856.317	29.55
856.625	22.53
856.933	57.64
857.241	69.34
857.549	85.72
857.857	43.59
858.165	-38.33
858.473	-45.35
858.78	-68.75
859.088	-68.75
859.396	59.98
859.703	-33.65
860.011	10.82
860.318	-19.6
860.626	-24.28
860.933	15.51
861.24	24.87
861.547	-26.62
861.855	43.59
862.162	-26.62
862.469	69.34
862.776	83.38
863.083	-35.99
863.39	17.85
863.697	29.55
864.003	36.57
864.31	-10.24
864.617	52.95
864.924	-96.84
865.23	20.19
865.537	-64.07
865.843	-33.65
866.15	-14.92
866.456	17.85
866.762	-87.48
867.068	20.19
867.375	76.36
867.681	99.77
867.987	41.25
868.293	17.85
868.599	-17.26
868.905	15.51
869.211	-28.96
869.517	-10.24
869.822	10.82
870.128	71.68
870.434	-52.37
870.739	-43.01
871.045	-78.12
871.35	52.95
871.656	125.51
871.961	13.17
872.266	99.77
872.572	55.3
872.877	55.3
873.182	22.53
873.487	8.48
873.792	45.93
874.097	64.66
874.402	113.81
874.707	-19.6
875.012	45.93
875.317	43.59
875.621	-5.56
875.926	24.87
876.231	88.06
876.535	6.14
876.84	59.98
877.144	-40.67
877.448	22.53
877.753	57.64
878.057	36.57
878.361	52.95
878.665	-5.56
878.97	-64.07
879.274	-110.88
879.578	-3.22
879.882	-19.6
880.185	-7.9
880.489	-7.9
880.793	20.19
881.097	8.48
881.4	6.14
881.704	-59.39
882.008	-3.22
882.311	52.95
882.615	55.3
882.918	69.34
883.221	-33.65
883.525	22.53
883.828	-28.96
884.131	31.89
884.434	45.93
884.737	50.61
885.04	-14.92
885.343	102.11
885.646	17.85
885.949	-31.3
886.252	102.11
886.554	17.85
886.857	123.17
887.16	24.87
887.462	-5.56
887.765	-38.33
888.067	-78.12
888.369	-87.48
888.672	17.85
888.974	1.46
889.276	64.66
889.578	3.8
889.881	8.48
890.183	-45.35
890.485	20.19
890.787	-7.9
891.089	-21.94
891.39	10.82
891.692	57.64
891.994	76.36
892.296	-59.39
892.597	8.48
892.899	-21.94
893.2	29.55
893.502	34.23
893.803	22.53
894.104	57.64
894.406	-108.54
894.707	48.27
895.008	74.02
895.309	109.13
895.61	109.13
895.911	31.89
896.212	57.64
896.513	22.53
896.814	-24.28
897.115	102.11
897.416	-75.77
897.716	34.23
898.017	-92.16
898.317	-92.16
898.618	-78.12
898.918	118.49
899.219	-28.96
899.519	24.87
899.819	-59.39
900.12	55.3
900.42	-52.37
900.72	1.46
901.02	3.8
901.32	-19.6
901.62	-5.56
901.92	-80.46
902.22	6.14
902.519	38.91
902.819	43.59
903.119	8.48
903.418	62.32
903.718	13.17
904.018	123.17
904.317	-52.37
904.616	45.93
904.916	-28.96
905.215	-17.26
905.514	52.95
905.813	8.48
906.113	38.91
906.412	-7.9
906.711	-40.67
907.01	22.53
907.308	43.59
907.607	81.04
907.906	127.85
908.205	111.47
908.503	76.36
908.802	55.3
909.101	55.3
909.399	-38.33
909.698	-113.22
909.996	52.95
910.294	-10.24
910.593	-43.01
910.891	78.7
911.189	67
911.487	-5.56
911.785	-10.24
912.083	17.85
912.381	20.19
912.679	38.91
912.977	81.04
913.275	-47.69
913.572	8.48
913.87	43.59
914.168	-26.62
914.465	45.93
914.763	-10.24
915.06	-40.67
915.358	69.34
915.655	20.19
915.952	-75.77
916.249	34.23
916.547	-14.92
916.844	10.82
917.141	-31.3
917.438	-10.24
917.735	31.89
918.032	62.32
918.328	-40.67
918.625	-61.73
918.922	-43.01
919.219	55.3
919.515	-14.92
919.812	83.38
920.108	92.74
920.405	-45.35
920.701	59.98
920.997	71.68
921.294	3.8
921.59	81.04
921.886	-40.67
922.182	64.66
922.478	3.8
922.774	-33.65
923.07	50.61
923.366	-19.6
923.662	1.46
923.957	62.32
924.253	31.89
924.549	-101.52
924.844	41.25
925.14	10.82
925.435	-43.01
925.731	-71.09
926.026	52.95
926.322	-124.93
926.617	-31.3
926.912	-89.82
927.207	-17.26
927.502	36.57
927.797	3.8
928.092	31.89
928.387	-26.62
928.682	90.4
928.977	3.8
929.272	-38.33
929.566	10.82
929.861	-68.75
930.156	55.3
930.45	17.85
930.745	1.46
931.039	1.46
931.333	74.02
931.628	-33.65
931.922	-66.41
932.216	-92.16
932.51	-31.3
932.804	36.57
933.098	31.89
933.392	13.17
933.686	71.68
933.98	-19.6
934.274	-12.58
934.568	-141.31
934.861	-24.28
935.155	-28.96
935.449	-12.58
935.742	3.8
936.036	52.95
936.329	-57.05
936.622	-31.3
936.916	69.34
937.209	99.77
937.502	27.21
937.795	1.46
938.088	-103.86
938.381	27.21
938.674	83.38
938.967	69.34
939.26	43.59
939.553	-71.09
939.845	13.17
940.138	-28.96
940.431	-40.67
940.723	22.53
941.016	45.93
941.308	15.51
941.601	17.85
941.893	-38.33
942.185	-12.58
942.478	8.48
942.77	111.47
943.062	41.25
943.354	-24.28
943.646	-38.33
943.938	-0.88
944.23	-5.56
944.522	36.57
944.813	-54.71
945.105	83.38
945.397	43.59
945.688	-19.6
945.98	-7.9
946.271	48.27
946.563	83.38
946.854	-75.77
947.145	95.08
947.437	113.81
947.728	-73.43
948.019	-3.22
948.31	-54.71
948.601	20.19
948.892	-7.9
949.183	-35.99
949.474	-5.56
949.765	-31.3
950.056	-73.43
950.346	-50.03
950.637	-31.3
950.927	24.87
951.218	83.38
951.508	-7.9
951.799	-5.56
952.089	55.3
952.38	78.7
952.67	-31.3
952.96	-7.9
953.25	-117.9
953.54	1.46
953.83	27.21
954.12	17.85
954.41	15.51
954.7	76.36
954.99	-7.9
955.279	6.14
955.569	1.46
955.859	-38.33
956.148	-3.22
956.438	-26.62
956.727	-38.33
957.017	10.82
957.306	-40.67
957.595	59.98
957.885	-50.03
958.174	-24.28
958.463	29.55
958.752	-57.05
959.041	27.21
959.33	27.21
959.619	-12.58
959.908	-87.48
960.196	-57.05
960.485	-17.26
960.774	34.23
961.062	-47.69
961.351	-5.56
961.639	-101.52
961.928	-64.07
962.216	31.89
962.504	-129.61
962.793	57.64
963.081	6.14
963.369	43.59
963.657	137.21
963.945	10.82
964.233	-31.3
964.521	41.25
964.809	3.8
965.097	59.98
965.385	38.91
965.672	17.85
965.96	-0.88
966.247	-14.92
966.535	48.27
966.822	6.14
967.11	38.91
967.397	104.45
967.685	-57.05
967.972	-3.22
968.259	-10.24
968.546	-7.9
968.833	48.27
969.12	-45.35
969.407	3.8
969.694	52.95
969.981	43.59
970.268	15.51
970.554	76.36
970.841	-5.56
971.128	45.93
971.414	41.25
971.701	-47.69
971.987	62.32
972.274	-73.43
972.56	-10.24
972.846	36.57
973.132	78.7
973.418	106.79
973.705	-73.43
973.991	78.7
974.277	-87.48
974.563	-38.33
974.848	55.3
975.134	15.51
975.42	-10.24
975.706	-99.18
975.991	6.14
976.277	-40.67
976.562	102.11
976.848	15.51
977.133	-89.82
977.419	59.98
977.704	106.79
977.989	6.14
978.274	-5.56
978.56	-47.69
978.845	-54.71
979.13	-71.09
979.415	-103.86
979.7	29.55
979.984	55.3
980.269	20.19
980.554	83.38
980.839	-0.88
981.123	-31.3
981.408	38.91
981.692	20.19
981.977	-40.67
982.261	-54.71
982.545	27.21
982.83	-59.39
983.114	20.19
983.398	50.61
983.682	20.19
983.966	-24.28
984.25	-38.33
984.534	29.55
984.818	57.64
985.102	34.23
985.386	-21.94
985.669	57.64
985.953	-101.52
986.236	-78.12
986.52	17.85
986.803	-52.37
987.087	-120.25
987.37	43.59
987.654	-66.41
987.937	-47.69
988.22	-7.9
988.503	-129.61
988.786	8.48
989.069	10.82
989.352	1.46
989.635	-12.58
989.918	-31.3
990.201	-33.65
990.483	-54.71
990.766	-26.62
991.049	-38.33
991.331	69.34
991.614	-96.84
991.896	-92.16
992.179	-21.94
992.461	20.19
992.743	55.3
993.025	83.38
993.307	-31.3
993.59	-14.92
993.872	-35.99
994.154	-28.96
994.436	-40.67
994.717	50.61
994.999	-50.03
995.281	38.91
995.563	104.45
995.844	13.17
996.126	-21.94
996.407	36.57
996.689	99.77
996.97	-68.75
997.252	-7.9
997.533	-0.88
997.814	-21.94
998.095	-61.73
998.376	22.53
998.657	-3.22
998.938	88.06
999.219	17.85
999.5	6.14
999.781	15.51
1000.062	3.8
1000.343	-33.65
1000.623	55.3
1000.904	-19.6
1001.184	64.66
1001.465	193.39
1001.745	-14.92
1002.026	22.53
1002.306	-40.67
1002.586	111.47
1002.866	-52.37
1003.147	1.46
1003.427	13.17
1003.707	45.93
1003.987	-35.99
1004.267	-0.88
1004.546	81.04
1004.826	76.36
1005.106	-40.67
1005.386	-50.03
1005.665	1.46
1005.945	45.93
1006.224	-31.3
1006.504	162.96
1006.783	-71.09
1007.063	29.55
1007.342	38.91
1007.621	-33.65
1007.9	-7.9
1008.179	-92.16
1008.458	-64.07
1008.737	-54.71
1009.016	85.72
1009.295	-50.03
1009.574	1.46
1009.853	-40.67
1010.131	20.19
1010.41	95.08
1010.689	31.89
1010.967	20.19
1011.246	-57.05
1011.524	-26.62
1011.802	1.46
1012.081	-28.96
1012.359	20.19
1012.637	8.48
1012.915	-92.16
1013.193	81.04
1013.471	-19.6
1013.749	-35.99
1014.027	1.46
1014.305	85.72
1014.583	-103.86
1014.86	38.91
1015.138	29.55
1015.416	34.23
1015.693	57.64
1015.971	52.95
1016.248	6.14
1016.525	-138.97
1016.803	8.48
1017.08	48.27
1017.357	3.8
1017.634	41.25
1017.911	-7.9
1018.188	-54.71
1018.465	-54.71
1018.742	-54.71
