Data from FLMS031491_10-48-31-436.txt Node
Date: Wed Feb 15 10:48:31 EST 2023
User: Wilson Lab
Spectrometer: FLMS03149
Trigger mode: 0
Integration Time (sec): 1.000000E-1
Scans to average: 1
Electric dark correction enabled: true
Nonlinearity correction enabled: false
Boxcar width: 0
XAxis mode: Wavelengths
Number of Pixels in Spectrum: 2048
>>>>>Begin Spectral Data<<<<<
338.754	-145.41
339.138	-145.41
339.521	-145.41
339.905	-122
340.288	-143.07
340.671	-166.47
341.055	-61.15
341.438	-96.25
341.821	-56.47
342.204	-37.74
342.587	-72.85
342.97	-40.08
343.353	-0.29
343.736	-28.38
344.119	-14.34
344.502	109.71
344.885	98.01
345.268	23.11
345.65	60.56
346.033	133.12
346.416	149.5
346.798	170.57
347.181	156.52
347.563	296.96
347.946	203.33
348.328	285.25
348.71	259.51
349.093	280.57
349.475	200.99
349.857	336.74
350.239	282.91
350.621	219.72
351.003	294.61
351.385	287.59
351.767	280.57
352.149	311
352.531	273.55
352.913	315.68
353.295	275.89
353.676	280.57
354.058	273.55
354.44	334.4
354.821	313.34
355.203	306.32
355.584	313.34
355.966	278.23
356.347	313.34
356.729	311
357.11	289.93
357.491	315.68
357.873	299.3
358.254	362.49
358.635	301.64
359.016	280.57
359.397	322.7
359.778	285.25
360.159	257.17
360.54	268.87
360.921	238.44
361.301	306.32
361.682	250.14
362.063	264.19
362.444	238.44
362.824	264.19
363.205	266.53
363.585	294.61
363.966	282.91
364.346	254.83
364.727	273.55
365.107	325.04
365.487	250.14
365.867	301.64
366.248	254.83
366.628	287.59
367.008	303.98
367.388	271.21
367.768	236.1
368.148	306.32
368.528	238.44
368.908	282.91
369.288	271.21
369.667	198.65
370.047	252.49
370.427	278.23
370.806	273.55
371.186	266.53
371.566	278.23
371.945	280.57
372.325	224.4
372.704	296.96
373.083	222.06
373.463	247.8
373.842	229.08
374.221	271.21
374.6	332.06
374.979	261.85
375.358	268.87
375.737	254.83
376.116	369.51
376.495	264.19
376.874	266.53
377.253	308.66
377.632	315.68
378.011	325.04
378.389	273.55
378.768	296.96
379.147	224.4
379.525	238.44
379.904	261.85
380.282	236.1
380.661	303.98
381.039	271.21
381.417	334.4
381.796	341.43
382.174	273.55
382.552	343.77
382.93	299.3
383.308	238.44
383.686	231.42
384.064	212.7
384.442	257.17
384.82	322.7
385.198	278.23
385.576	229.08
385.954	238.44
386.331	311
386.709	236.1
387.087	271.21
387.464	325.04
387.842	231.42
388.219	268.87
388.597	273.55
388.974	271.21
389.351	280.57
389.729	341.43
390.106	327.38
390.483	329.72
390.86	261.85
391.237	285.25
391.614	296.96
391.991	336.74
392.368	231.42
392.745	271.21
393.122	273.55
393.499	271.21
393.876	289.93
394.253	299.3
394.629	247.8
395.006	334.4
395.382	172.91
395.759	266.53
396.135	247.8
396.512	287.59
396.888	313.34
397.265	240.78
397.641	278.23
398.017	381.21
398.393	289.93
398.77	282.91
399.146	275.89
399.522	200.99
399.898	322.7
400.274	280.57
400.65	301.64
401.026	287.59
401.401	320.36
401.777	334.4
402.153	280.57
402.529	217.38
402.904	285.25
403.28	259.51
403.655	285.25
404.031	299.3
404.406	339.09
404.782	264.19
405.157	308.66
405.532	348.45
405.908	308.66
406.283	329.72
406.658	287.59
407.033	238.44
407.408	311
407.783	285.25
408.158	278.23
408.533	350.79
408.908	287.59
409.283	282.91
409.658	264.19
410.033	285.25
410.407	278.23
410.782	252.49
411.157	301.64
411.531	287.59
411.906	287.59
412.28	266.53
412.654	303.98
413.029	296.96
413.403	289.93
413.777	243.12
414.152	208.02
414.526	292.27
414.9	275.89
415.274	313.34
415.648	318.02
416.022	339.09
416.396	282.91
416.77	334.4
417.144	292.27
417.518	219.72
417.891	306.32
418.265	311
418.639	313.34
419.012	226.74
419.386	362.49
419.759	289.93
420.133	259.51
420.506	287.59
420.88	301.64
421.253	299.3
421.626	275.89
421.999	285.25
422.373	257.17
422.746	301.64
423.119	303.98
423.492	287.59
423.865	320.36
424.238	268.87
424.611	353.13
424.984	315.68
425.356	318.02
425.729	315.68
426.102	289.93
426.474	364.83
426.847	336.74
427.22	266.53
427.592	257.17
427.965	341.43
428.337	294.61
428.709	327.38
429.082	292.27
429.454	296.96
429.826	339.09
430.198	278.23
430.571	322.7
430.943	315.68
431.315	271.21
431.687	348.45
432.059	346.11
432.431	264.19
432.802	289.93
433.174	360.15
433.546	240.78
433.918	318.02
434.289	287.59
434.661	224.4
435.032	296.96
435.404	341.43
435.775	247.8
436.147	341.43
436.518	289.93
436.89	313.34
437.261	259.51
437.632	320.36
438.003	254.83
438.374	266.53
438.745	236.1
439.116	275.89
439.487	296.96
439.858	315.68
440.229	268.87
440.6	282.91
440.971	329.72
441.342	332.06
441.712	303.98
442.083	261.85
442.454	311
442.824	362.49
443.195	390.58
443.565	367.17
443.936	332.06
444.306	329.72
444.676	303.98
445.047	299.3
445.417	367.17
445.787	329.72
446.157	231.42
446.527	301.64
446.897	355.47
447.267	268.87
447.637	320.36
448.007	322.7
448.377	348.45
448.747	322.7
449.116	303.98
449.486	282.91
449.856	362.49
450.225	292.27
450.595	315.68
450.964	282.91
451.334	315.68
451.703	299.3
452.073	376.53
452.442	285.25
452.811	306.32
453.18	350.79
453.55	318.02
453.919	306.32
454.288	315.68
454.657	261.85
455.026	329.72
455.395	308.66
455.764	336.74
456.132	266.53
456.501	322.7
456.87	306.32
457.239	289.93
457.607	289.93
457.976	357.81
458.344	296.96
458.713	266.53
459.081	369.51
459.45	303.98
459.818	306.32
460.186	383.56
460.555	367.17
460.923	240.78
461.291	278.23
461.659	275.89
462.027	364.83
462.395	339.09
462.763	318.02
463.131	341.43
463.499	353.13
463.867	336.74
464.235	399.94
464.602	303.98
464.97	296.96
465.338	247.8
465.705	313.34
466.073	303.98
466.44	287.59
466.808	350.79
467.175	315.68
467.542	301.64
467.91	367.17
468.277	238.44
468.644	296.96
469.011	336.74
469.378	343.77
469.745	315.68
470.112	325.04
470.479	257.17
470.846	388.24
471.213	350.79
471.58	406.96
471.947	308.66
472.313	292.27
472.68	292.27
473.047	371.85
473.413	367.17
473.78	308.66
474.146	348.45
474.513	498.24
474.879	336.74
475.245	320.36
475.612	332.06
475.978	325.04
476.344	348.45
476.71	397.6
477.076	301.64
477.442	376.53
477.808	327.38
478.174	334.4
478.54	339.09
478.906	301.64
479.272	404.62
479.638	336.74
480.003	313.34
480.369	315.68
480.734	325.04
481.1	268.87
481.466	374.19
481.831	348.45
482.196	257.17
482.562	318.02
482.927	336.74
483.292	252.49
483.658	315.68
484.023	353.13
484.388	308.66
484.753	252.49
485.118	266.53
485.483	336.74
485.848	257.17
486.213	360.15
486.578	392.92
486.942	367.17
487.307	360.15
487.672	301.64
488.036	287.59
488.401	275.89
488.765	287.59
489.13	329.72
489.494	334.4
489.859	341.43
490.223	236.1
490.587	318.02
490.952	236.1
491.316	341.43
491.68	325.04
492.044	362.49
492.408	308.66
492.772	362.49
493.136	339.09
493.5	233.76
493.864	313.34
494.228	308.66
494.591	318.02
494.955	325.04
495.319	299.3
495.682	292.27
496.046	350.79
496.409	327.38
496.773	294.61
497.136	303.98
497.5	357.81
497.863	311
498.226	261.85
498.589	343.77
498.953	325.04
499.316	287.59
499.679	315.68
500.042	266.53
500.405	257.17
500.768	299.3
501.131	369.51
501.494	271.21
501.856	301.64
502.219	301.64
502.582	261.85
502.944	320.36
503.307	299.3
503.669	301.64
504.032	245.46
504.394	289.93
504.757	315.68
505.119	280.57
505.481	357.81
505.844	325.04
506.206	341.43
506.568	313.34
506.93	397.6
507.292	306.32
507.654	327.38
508.016	311
508.378	282.91
508.74	353.13
509.102	308.66
509.463	285.25
509.825	320.36
510.187	315.68
510.548	374.19
510.91	308.66
511.272	226.74
511.633	376.53
511.994	346.11
512.356	289.93
512.717	313.34
513.078	301.64
513.44	367.17
513.801	289.93
514.162	275.89
514.523	287.59
514.884	236.1
515.245	245.46
515.606	303.98
515.967	250.14
516.328	266.53
516.688	343.77
517.049	357.81
517.41	315.68
517.77	303.98
518.131	315.68
518.491	294.61
518.852	264.19
519.212	275.89
519.573	254.83
519.933	364.83
520.293	245.46
520.654	278.23
521.014	292.27
521.374	311
521.734	341.43
522.094	315.68
522.454	332.06
522.814	329.72
523.174	325.04
523.534	311
523.894	303.98
524.253	259.51
524.613	292.27
524.973	257.17
525.332	311
525.692	329.72
526.051	275.89
526.411	301.64
526.77	343.77
527.13	357.81
527.489	306.32
527.848	376.53
528.207	306.32
528.567	341.43
528.926	282.91
529.285	289.93
529.644	320.36
530.003	303.98
530.362	353.13
530.72	306.32
531.079	318.02
531.438	315.68
531.797	353.13
532.155	318.02
532.514	318.02
532.873	346.11
533.231	285.25
533.59	336.74
533.948	327.38
534.306	411.64
534.665	453.77
535.023	446.75
535.381	378.87
535.739	341.43
536.097	285.25
536.456	413.98
536.814	364.83
537.172	371.85
537.529	306.32
537.887	334.4
538.245	306.32
538.603	369.51
538.961	360.15
539.318	402.28
539.676	308.66
540.034	355.47
540.391	343.77
540.749	325.04
541.106	341.43
541.463	280.57
541.821	336.74
542.178	275.89
542.535	275.89
542.892	390.58
543.25	341.43
543.607	336.74
543.964	339.09
544.321	362.49
544.678	341.43
545.035	245.46
545.391	313.34
545.748	259.51
546.105	224.4
546.462	320.36
546.818	292.27
547.175	325.04
547.531	322.7
547.888	257.17
548.244	315.68
548.601	334.4
548.957	229.08
549.313	306.32
549.67	306.32
550.026	318.02
550.382	360.15
550.738	306.32
551.094	289.93
551.45	266.53
551.806	313.34
552.162	376.53
552.518	369.51
552.874	252.49
553.229	282.91
553.585	339.09
553.941	329.72
554.296	371.85
554.652	313.34
555.007	287.59
555.363	325.04
555.718	353.13
556.074	364.83
556.429	320.36
556.784	261.85
557.139	327.38
557.495	271.21
557.85	303.98
558.205	320.36
558.56	327.38
558.915	308.66
559.27	289.93
559.624	273.55
559.979	348.45
560.334	327.38
560.689	275.89
561.043	318.02
561.398	362.49
561.753	367.17
562.107	341.43
562.462	353.13
562.816	303.98
563.17	449.09
563.525	254.83
563.879	306.32
564.233	285.25
564.587	306.32
564.941	355.47
565.295	311
565.649	341.43
566.003	367.17
566.357	327.38
566.711	350.79
567.065	357.81
567.419	357.81
567.773	311
568.126	411.64
568.48	325.04
568.833	320.36
569.187	362.49
569.54	362.49
569.894	322.7
570.247	252.49
570.6	371.85
570.954	360.15
571.307	350.79
571.66	404.62
572.013	341.43
572.366	332.06
572.719	353.13
573.072	381.21
573.425	385.9
573.778	329.72
574.131	367.17
574.484	346.11
574.836	355.47
575.189	357.81
575.542	371.85
575.894	385.9
576.247	378.87
576.599	430.37
576.952	390.58
577.304	392.92
577.656	399.94
578.009	399.94
578.361	355.47
578.713	430.37
579.065	435.05
579.417	416.32
579.769	467.81
580.121	411.64
580.473	313.34
580.825	385.9
581.177	428.03
581.528	435.05
581.88	360.15
582.232	413.98
582.584	423.34
582.935	402.28
583.287	390.58
583.638	488.88
583.989	493.56
584.341	390.58
584.692	388.24
585.043	444.41
585.395	399.94
585.746	477.18
586.097	495.9
586.448	484.2
586.799	526.33
587.15	444.41
587.501	514.63
587.852	491.22
588.203	486.54
588.553	442.07
588.904	512.28
589.255	542.71
589.605	531.01
589.956	547.39
590.306	465.47
590.657	491.22
591.007	472.5
591.358	542.71
591.708	493.56
592.058	570.8
592.408	437.39
592.759	516.97
593.109	552.07
593.459	509.94
593.809	538.03
594.159	467.81
594.509	498.24
594.859	556.75
595.208	549.73
595.558	502.92
595.908	538.03
596.258	582.5
596.607	563.78
596.957	514.63
597.306	491.22
597.656	507.6
598.005	502.92
598.354	591.86
598.704	617.61
599.053	521.65
599.402	591.86
599.751	538.03
600.1	540.37
600.45	584.84
600.799	552.07
601.148	573.14
601.496	596.54
601.845	486.54
602.194	577.82
602.543	580.16
602.892	502.92
603.24	519.31
603.589	570.8
603.937	556.75
604.286	453.77
604.634	594.2
604.983	540.37
605.331	533.35
605.679	521.65
606.028	559.1
606.376	470.16
606.724	542.71
607.072	552.07
607.42	612.93
607.768	505.26
608.116	502.92
608.464	453.77
608.812	566.12
609.16	460.79
609.507	467.81
609.855	472.5
610.203	549.73
610.55	493.56
610.898	470.16
611.245	523.99
611.593	442.07
611.94	495.9
612.288	453.77
612.635	432.71
612.982	519.31
613.329	470.16
613.676	467.81
614.024	488.88
614.371	531.01
614.718	456.11
615.064	484.2
615.411	495.9
615.758	502.92
616.105	439.73
616.452	425.68
616.798	425.68
617.145	472.5
617.492	430.37
617.838	463.13
618.185	409.3
618.531	390.58
618.877	465.47
619.224	378.87
619.57	385.9
619.916	350.79
620.263	467.81
620.609	416.32
620.955	428.03
621.301	470.16
621.647	418.66
621.993	481.86
622.339	418.66
622.684	463.13
623.03	428.03
623.376	421
623.722	418.66
624.067	453.77
624.413	404.62
624.758	435.05
625.104	369.51
625.449	383.56
625.795	395.26
626.14	390.58
626.485	413.98
626.83	385.9
627.175	453.77
627.521	413.98
627.866	388.24
628.211	437.39
628.556	423.34
628.901	423.34
629.245	404.62
629.59	451.43
629.935	388.24
630.28	413.98
630.624	404.62
630.969	381.21
631.314	376.53
631.658	432.71
632.002	404.62
632.347	385.9
632.691	383.56
633.036	348.45
633.38	381.21
633.724	329.72
634.068	348.45
634.412	383.56
634.756	413.98
635.1	430.37
635.444	381.21
635.788	376.53
636.132	346.11
636.476	409.3
636.82	378.87
637.163	421
637.507	465.47
637.85	411.64
638.194	346.11
638.537	385.9
638.881	346.11
639.224	346.11
639.568	341.43
639.911	383.56
640.254	329.72
640.597	299.3
640.94	341.43
641.284	376.53
641.627	374.19
641.97	325.04
642.312	439.73
642.655	413.98
642.998	446.75
643.341	336.74
643.684	392.92
644.026	327.38
644.369	343.77
644.712	411.64
645.054	364.83
645.396	369.51
645.739	402.28
646.081	369.51
646.424	346.11
646.766	374.19
647.108	287.59
647.45	346.11
647.792	413.98
648.134	425.68
648.476	341.43
648.818	374.19
649.16	364.83
649.502	413.98
649.844	385.9
650.186	395.26
650.527	318.02
650.869	346.11
651.211	423.34
651.552	353.13
651.894	371.85
652.235	374.19
652.576	364.83
652.918	395.26
653.259	449.09
653.6	294.61
653.942	332.06
654.283	336.74
654.624	348.45
654.965	355.47
655.306	329.72
655.647	376.53
655.988	360.15
656.328	282.91
656.669	369.51
657.01	390.58
657.351	320.36
657.691	339.09
658.032	376.53
658.372	348.45
658.713	346.11
659.053	343.77
659.394	362.49
659.734	339.09
660.074	343.77
660.414	313.34
660.755	280.57
661.095	360.15
661.435	325.04
661.775	355.47
662.115	334.4
662.455	313.34
662.794	367.17
663.134	364.83
663.474	378.87
663.814	327.38
664.153	353.13
664.493	357.81
664.833	383.56
665.172	409.3
665.511	332.06
665.851	411.64
666.19	339.09
666.529	360.15
666.869	406.96
667.208	329.72
667.547	355.47
667.886	320.36
668.225	413.98
668.564	423.34
668.903	339.09
669.242	364.83
669.581	442.07
669.92	301.64
670.258	385.9
670.597	268.87
670.936	383.56
671.274	357.81
671.613	306.32
671.951	296.96
672.29	289.93
672.628	289.93
672.966	306.32
673.304	318.02
673.643	406.96
673.981	327.38
674.319	294.61
674.657	355.47
674.995	350.79
675.333	325.04
675.671	364.83
676.009	339.09
676.346	392.92
676.684	292.27
677.022	346.11
677.36	364.83
677.697	311
678.035	350.79
678.372	367.17
678.71	280.57
679.047	299.3
679.384	287.59
679.722	339.09
680.059	362.49
680.396	327.38
680.733	374.19
681.07	397.6
681.407	353.13
681.744	388.24
682.081	350.79
682.418	369.51
682.755	292.27
683.092	308.66
683.428	381.21
683.765	315.68
684.102	292.27
684.438	292.27
684.775	280.57
685.111	318.02
685.447	369.51
685.784	329.72
686.12	376.53
686.456	416.32
686.793	378.87
687.129	348.45
687.465	362.49
687.801	381.21
688.137	339.09
688.473	348.45
688.809	390.58
689.144	332.06
689.48	336.74
689.816	395.26
690.152	343.77
690.487	350.79
690.823	357.81
691.158	378.87
691.494	348.45
691.829	322.7
692.165	399.94
692.5	292.27
692.835	296.96
693.17	367.17
693.506	357.81
693.841	318.02
694.176	296.96
694.511	327.38
694.846	348.45
695.181	329.72
695.515	364.83
695.85	350.79
696.185	327.38
696.52	325.04
696.854	264.19
697.189	275.89
697.523	339.09
697.858	350.79
698.192	355.47
698.527	273.55
698.861	334.4
699.195	240.78
699.53	357.81
699.864	299.3
700.198	339.09
700.532	303.98
700.866	346.11
701.2	315.68
701.534	294.61
701.868	311
702.201	282.91
702.535	332.06
702.869	299.3
703.203	287.59
703.536	357.81
703.87	325.04
704.203	306.32
704.537	350.79
704.87	332.06
705.203	287.59
705.537	369.51
705.87	233.76
706.203	311
706.536	325.04
706.869	355.47
707.202	409.3
707.535	303.98
707.868	334.4
708.201	346.11
708.534	294.61
708.867	355.47
709.199	273.55
709.532	369.51
709.865	327.38
710.197	385.9
710.53	322.7
710.862	306.32
711.195	315.68
711.527	243.12
711.859	334.4
712.191	301.64
712.524	318.02
712.856	336.74
713.188	397.6
713.52	332.06
713.852	264.19
714.184	299.3
714.516	313.34
714.847	292.27
715.179	315.68
715.511	334.4
715.843	364.83
716.174	343.77
716.506	311
716.837	280.57
717.169	289.93
717.5	355.47
717.832	318.02
718.163	278.23
718.494	257.17
718.825	285.25
719.156	346.11
719.488	303.98
719.819	327.38
720.15	334.4
720.48	343.77
720.811	313.34
721.142	292.27
721.473	369.51
721.804	355.47
722.134	289.93
722.465	325.04
722.796	339.09
723.126	357.81
723.457	374.19
723.787	332.06
724.117	327.38
724.448	353.13
724.778	348.45
725.108	289.93
725.438	278.23
725.768	341.43
726.098	247.8
726.428	259.51
726.758	327.38
727.088	369.51
727.418	353.13
727.748	348.45
728.078	257.17
728.407	257.17
728.737	273.55
729.066	332.06
729.396	292.27
729.725	301.64
730.055	329.72
730.384	357.81
730.714	353.13
731.043	287.59
731.372	348.45
731.701	231.42
732.03	353.13
732.359	392.92
732.688	289.93
733.017	240.78
733.346	332.06
733.675	299.3
734.004	285.25
734.332	355.47
734.661	280.57
734.99	357.81
735.318	299.3
735.647	311
735.975	327.38
736.304	327.38
736.632	334.4
736.96	299.3
737.289	306.32
737.617	392.92
737.945	313.34
738.273	257.17
738.601	336.74
738.929	355.47
739.257	271.21
739.585	320.36
739.913	296.96
740.241	280.57
740.568	416.32
740.896	233.76
741.224	264.19
741.551	322.7
741.879	318.02
742.206	306.32
742.534	289.93
742.861	282.91
743.188	245.46
743.516	280.57
743.843	322.7
744.17	327.38
744.497	306.32
744.824	287.59
745.151	332.06
745.478	320.36
745.805	289.93
746.132	285.25
746.459	303.98
746.785	311
747.112	278.23
747.439	346.11
747.765	315.68
748.092	353.13
748.418	348.45
748.745	289.93
749.071	280.57
749.397	275.89
749.723	341.43
750.05	329.72
750.376	275.89
750.702	327.38
751.028	287.59
751.354	329.72
751.68	287.59
752.006	348.45
752.332	322.7
752.657	303.98
752.983	296.96
753.309	355.47
753.634	325.04
753.96	254.83
754.286	320.36
754.611	332.06
754.936	303.98
755.262	364.83
755.587	329.72
755.912	334.4
756.237	334.4
756.563	315.68
756.888	341.43
757.213	282.91
757.538	327.38
757.863	332.06
758.188	285.25
758.512	306.32
758.837	315.68
759.162	313.34
759.487	325.04
759.811	226.74
760.136	257.17
760.46	332.06
760.785	245.46
761.109	341.43
761.433	311
761.758	348.45
762.082	306.32
762.406	339.09
762.73	278.23
763.054	273.55
763.378	296.96
763.702	350.79
764.026	357.81
764.35	332.06
764.674	259.51
764.998	289.93
765.321	399.94
765.645	306.32
765.969	311
766.292	280.57
766.616	346.11
766.939	238.44
767.263	336.74
767.586	357.81
767.909	299.3
768.232	336.74
768.556	306.32
768.879	327.38
769.202	301.64
769.525	299.3
769.848	322.7
770.171	257.17
770.494	275.89
770.816	367.17
771.139	261.85
771.462	357.81
771.785	301.64
772.107	245.46
772.43	320.36
772.752	392.92
773.075	292.27
773.397	268.87
773.719	306.32
774.042	315.68
774.364	336.74
774.686	311
775.008	285.25
775.33	318.02
775.652	294.61
775.974	355.47
776.296	413.98
776.618	334.4
776.94	341.43
777.261	268.87
777.583	313.34
777.905	371.85
778.226	332.06
778.548	325.04
778.869	289.93
779.191	301.64
779.512	289.93
779.833	329.72
780.155	336.74
780.476	313.34
780.797	353.13
781.118	341.43
781.439	362.49
781.76	294.61
782.081	320.36
782.402	299.3
782.723	343.77
783.044	322.7
783.364	292.27
783.685	320.36
784.006	397.6
784.326	332.06
784.647	282.91
784.967	320.36
785.288	273.55
785.608	320.36
785.928	278.23
786.249	343.77
786.569	287.59
786.889	282.91
787.209	348.45
787.529	257.17
787.849	332.06
788.169	303.98
788.489	348.45
788.809	367.17
789.128	343.77
789.448	371.85
789.768	329.72
790.087	343.77
790.407	301.64
790.726	266.53
791.046	327.38
791.365	399.94
791.685	289.93
792.004	325.04
792.323	306.32
792.642	308.66
792.961	341.43
793.28	332.06
793.599	332.06
793.918	378.87
794.237	332.06
794.556	311
794.875	287.59
795.194	362.49
795.512	315.68
795.831	315.68
796.15	301.64
796.468	313.34
796.787	271.21
797.105	308.66
797.423	360.15
797.742	306.32
798.06	278.23
798.378	332.06
798.696	350.79
799.014	381.21
799.333	252.49
799.65	318.02
799.968	301.64
800.286	264.19
800.604	322.7
800.922	383.56
801.24	327.38
801.557	343.77
801.875	301.64
802.193	320.36
802.51	350.79
802.827	318.02
803.145	341.43
803.462	311
803.78	325.04
804.097	385.9
804.414	308.66
804.731	268.87
805.048	325.04
805.365	364.83
805.682	376.53
805.999	308.66
806.316	275.89
806.633	322.7
806.95	322.7
807.266	339.09
807.583	247.8
807.899	245.46
808.216	273.55
808.533	376.53
808.849	320.36
809.165	282.91
809.482	329.72
809.798	311
810.114	278.23
810.43	325.04
810.746	362.49
811.062	325.04
811.378	273.55
811.694	327.38
812.01	369.51
812.326	355.47
812.642	322.7
812.958	250.14
813.273	285.25
813.589	390.58
813.905	266.53
814.22	353.13
814.536	308.66
814.851	296.96
815.166	355.47
815.482	287.59
815.797	318.02
816.112	308.66
816.427	318.02
816.742	215.04
817.057	350.79
817.372	313.34
817.687	238.44
818.002	318.02
818.317	350.79
818.632	325.04
818.946	311
819.261	357.81
819.576	397.6
819.89	376.53
820.205	275.89
820.519	311
820.833	339.09
821.148	282.91
821.462	296.96
821.776	301.64
822.09	334.4
822.405	287.59
822.719	353.13
823.033	261.85
823.347	353.13
823.66	252.49
823.974	332.06
824.288	350.79
824.602	350.79
824.915	322.7
825.229	299.3
825.543	292.27
825.856	282.91
826.17	343.77
826.483	367.17
826.796	299.3
827.11	343.77
827.423	343.77
827.736	289.93
828.049	343.77
828.362	322.7
828.675	364.83
828.988	303.98
829.301	289.93
829.614	313.34
829.927	296.96
830.24	383.56
830.552	343.77
830.865	266.53
831.178	292.27
831.49	257.17
831.803	280.57
832.115	294.61
832.428	287.59
832.74	315.68
833.052	296.96
833.364	308.66
833.676	320.36
833.989	289.93
834.301	322.7
834.613	280.57
834.925	346.11
835.236	329.72
835.548	336.74
835.86	320.36
836.172	360.15
836.483	247.8
836.795	254.83
837.107	280.57
837.418	329.72
837.73	273.55
838.041	301.64
838.352	348.45
838.664	294.61
838.975	334.4
839.286	301.64
839.597	343.77
839.908	311
840.219	353.13
840.53	303.98
840.841	250.14
841.152	322.7
841.463	367.17
841.773	271.21
842.084	250.14
842.395	261.85
842.705	348.45
843.016	268.87
843.326	303.98
843.637	318.02
843.947	378.87
844.257	268.87
844.568	346.11
844.878	273.55
845.188	308.66
845.498	278.23
845.808	313.34
846.118	383.56
846.428	282.91
846.738	313.34
847.048	322.7
847.358	357.81
847.667	322.7
847.977	282.91
848.287	325.04
848.596	259.51
848.906	311
849.215	282.91
849.524	273.55
849.834	261.85
850.143	322.7
850.452	367.17
850.761	320.36
851.07	301.64
851.379	261.85
851.688	306.32
851.997	315.68
852.306	250.14
852.615	334.4
852.924	261.85
853.233	360.15
853.541	308.66
853.85	313.34
854.158	308.66
854.467	299.3
854.775	315.68
855.084	275.89
855.392	320.36
855.7	289.93
856.009	219.72
856.317	313.34
856.625	367.17
856.933	334.4
857.241	318.02
857.549	264.19
857.857	306.32
858.165	385.9
858.473	322.7
858.78	332.06
859.088	296.96
859.396	299.3
859.703	315.68
860.011	301.64
860.318	259.51
860.626	350.79
860.933	322.7
861.24	327.38
861.547	301.64
861.855	275.89
862.162	329.72
862.469	296.96
862.776	364.83
863.083	353.13
863.39	329.72
863.697	385.9
864.003	275.89
864.31	308.66
864.617	327.38
864.924	320.36
865.23	240.78
865.537	357.81
865.843	341.43
866.15	303.98
866.456	273.55
866.762	275.89
867.068	325.04
867.375	301.64
867.681	343.77
867.987	315.68
868.293	325.04
868.599	383.56
868.905	329.72
869.211	341.43
869.517	341.43
869.822	247.8
870.128	341.43
870.434	357.81
870.739	376.53
871.045	320.36
871.35	311
871.656	278.23
871.961	325.04
872.266	311
872.572	287.59
872.877	348.45
873.182	327.38
873.487	308.66
873.792	311
874.097	289.93
874.402	292.27
874.707	299.3
875.012	322.7
875.317	296.96
875.621	266.53
875.926	254.83
876.231	332.06
876.535	353.13
876.84	327.38
877.144	306.32
877.448	278.23
877.753	259.51
878.057	280.57
878.361	247.8
878.665	294.61
878.97	336.74
879.274	346.11
879.578	294.61
879.882	198.65
880.185	325.04
880.489	280.57
880.793	355.47
881.097	320.36
881.4	292.27
881.704	285.25
882.008	219.72
882.311	257.17
882.615	278.23
882.918	292.27
883.221	301.64
883.525	282.91
883.828	329.72
884.131	299.3
884.434	306.32
884.737	325.04
885.04	292.27
885.343	311
885.646	308.66
885.949	369.51
886.252	411.64
886.554	236.1
886.857	278.23
887.16	303.98
887.462	329.72
887.765	322.7
888.067	292.27
888.369	332.06
888.672	334.4
888.974	296.96
889.276	329.72
889.578	296.96
889.881	296.96
890.183	322.7
890.485	299.3
890.787	385.9
891.089	285.25
891.39	294.61
891.692	273.55
891.994	294.61
892.296	362.49
892.597	334.4
892.899	311
893.2	357.81
893.502	339.09
893.803	350.79
894.104	261.85
894.406	320.36
894.707	334.4
895.008	259.51
895.309	254.83
895.61	294.61
895.911	334.4
896.212	346.11
896.513	243.12
896.814	184.61
897.115	334.4
897.416	313.34
897.716	355.47
898.017	294.61
898.317	346.11
898.618	252.49
898.918	292.27
899.219	238.44
899.519	315.68
899.819	341.43
900.12	322.7
900.42	362.49
900.72	320.36
901.02	327.38
901.32	348.45
901.62	334.4
901.92	261.85
902.22	273.55
902.519	327.38
902.819	329.72
903.119	341.43
903.418	299.3
903.718	259.51
904.018	285.25
904.317	259.51
904.616	264.19
904.916	275.89
905.215	308.66
905.514	371.85
905.813	341.43
906.113	325.04
906.412	306.32
906.711	318.02
907.01	299.3
907.308	371.85
907.607	332.06
907.906	285.25
908.205	313.34
908.503	355.47
908.802	318.02
909.101	259.51
909.399	254.83
909.698	287.59
909.996	280.57
910.294	406.96
910.593	308.66
910.891	240.78
911.189	341.43
911.487	327.38
911.785	278.23
912.083	285.25
912.381	271.21
912.679	343.77
912.977	261.85
913.275	360.15
913.572	325.04
913.87	327.38
914.168	341.43
914.465	313.34
914.763	282.91
915.06	322.7
915.358	341.43
915.655	320.36
915.952	329.72
916.249	278.23
916.547	315.68
916.844	296.96
917.141	278.23
917.438	296.96
917.735	271.21
918.032	289.93
918.328	299.3
918.625	261.85
918.922	299.3
919.219	392.92
919.515	303.98
919.812	350.79
920.108	252.49
920.405	364.83
920.701	271.21
920.997	273.55
921.294	301.64
921.59	280.57
921.886	364.83
922.182	346.11
922.478	287.59
922.774	311
923.07	341.43
923.366	313.34
923.662	308.66
923.957	280.57
924.253	306.32
924.549	278.23
924.844	268.87
925.14	374.19
925.435	280.57
925.731	336.74
926.026	322.7
926.322	313.34
926.617	327.38
926.912	369.51
927.207	303.98
927.502	329.72
927.797	282.91
928.092	280.57
928.387	339.09
928.682	292.27
928.977	325.04
929.272	282.91
929.566	266.53
929.861	339.09
930.156	348.45
930.45	294.61
930.745	301.64
931.039	268.87
931.333	343.77
931.628	296.96
931.922	268.87
932.216	306.32
932.51	369.51
932.804	322.7
933.098	430.37
933.392	355.47
933.686	308.66
933.98	320.36
934.274	325.04
934.568	322.7
934.861	271.21
935.155	374.19
935.449	287.59
935.742	299.3
936.036	343.77
936.329	266.53
936.622	299.3
936.916	336.74
937.209	289.93
937.502	332.06
937.795	311
938.088	332.06
938.381	336.74
938.674	308.66
938.967	282.91
939.26	357.81
939.553	362.49
939.845	322.7
940.138	229.08
940.431	292.27
940.723	296.96
941.016	294.61
941.308	301.64
941.601	315.68
941.893	395.26
942.185	271.21
942.478	334.4
942.77	282.91
943.062	374.19
943.354	362.49
943.646	322.7
943.938	285.25
944.23	357.81
944.522	341.43
944.813	350.79
945.105	329.72
945.397	287.59
945.688	311
945.98	334.4
946.271	306.32
946.563	268.87
946.854	332.06
947.145	282.91
947.437	299.3
947.728	308.66
948.019	299.3
948.31	325.04
948.601	292.27
948.892	271.21
949.183	252.49
949.474	346.11
949.765	346.11
950.056	278.23
950.346	332.06
950.637	332.06
950.927	299.3
951.218	336.74
951.508	289.93
951.799	254.83
952.089	334.4
952.38	285.25
952.67	224.4
952.96	294.61
953.25	311
953.54	294.61
953.83	296.96
954.12	332.06
954.41	311
954.7	306.32
954.99	301.64
955.279	252.49
955.569	343.77
955.859	348.45
956.148	308.66
956.438	353.13
956.727	303.98
957.017	285.25
957.306	278.23
957.595	275.89
957.885	257.17
958.174	311
958.463	315.68
958.752	341.43
959.041	348.45
959.33	339.09
959.619	240.78
959.908	229.08
960.196	320.36
960.485	278.23
960.774	296.96
961.062	355.47
961.351	278.23
961.639	264.19
961.928	374.19
962.216	383.56
962.504	289.93
962.793	327.38
963.081	325.04
963.369	332.06
963.657	392.92
963.945	336.74
964.233	261.85
964.521	303.98
964.809	264.19
965.097	233.76
965.385	355.47
965.672	275.89
965.96	282.91
966.247	362.49
966.535	299.3
966.822	327.38
967.11	264.19
967.397	282.91
967.685	346.11
967.972	303.98
968.259	355.47
968.546	343.77
968.833	329.72
969.12	261.85
969.407	268.87
969.694	294.61
969.981	336.74
970.268	287.59
970.554	257.17
970.841	322.7
971.128	282.91
971.414	308.66
971.701	313.34
971.987	390.58
972.274	292.27
972.56	250.14
972.846	322.7
973.132	236.1
973.418	322.7
973.705	376.53
973.991	271.21
974.277	296.96
974.563	376.53
974.848	222.06
975.134	325.04
975.42	308.66
975.706	346.11
975.991	268.87
976.277	289.93
976.562	289.93
976.848	261.85
977.133	229.08
977.419	294.61
977.704	247.8
977.989	308.66
978.274	294.61
978.56	254.83
978.845	348.45
979.13	301.64
979.415	308.66
979.7	311
979.984	325.04
980.269	282.91
980.554	329.72
980.839	308.66
981.123	306.32
981.408	271.21
981.692	301.64
981.977	250.14
982.261	336.74
982.545	261.85
982.83	289.93
983.114	343.77
983.398	313.34
983.682	332.06
983.966	332.06
984.25	285.25
984.534	346.11
984.818	315.68
985.102	282.91
985.386	390.58
985.669	254.83
985.953	271.21
986.236	275.89
986.52	339.09
986.803	383.56
987.087	306.32
987.37	322.7
987.654	329.72
987.937	339.09
988.22	299.3
988.503	336.74
988.786	376.53
989.069	353.13
989.352	306.32
989.635	322.7
989.918	303.98
990.201	311
990.483	327.38
990.766	360.15
991.049	320.36
991.331	193.97
991.614	334.4
991.896	322.7
992.179	301.64
992.461	320.36
992.743	364.83
993.025	308.66
993.307	282.91
993.59	222.06
993.872	264.19
994.154	294.61
994.436	313.34
994.717	311
994.999	364.83
995.281	343.77
995.563	268.87
995.844	334.4
996.126	301.64
996.407	369.51
996.689	369.51
996.97	308.66
997.252	252.49
997.533	315.68
997.814	282.91
998.095	315.68
998.376	360.15
998.657	332.06
998.938	350.79
999.219	348.45
999.5	271.21
999.781	268.87
1000.062	264.19
1000.343	287.59
1000.623	320.36
1000.904	299.3
1001.184	332.06
1001.465	226.74
1001.745	322.7
1002.026	315.68
1002.306	247.8
1002.586	311
1002.866	329.72
1003.147	301.64
1003.427	378.87
1003.707	357.81
1003.987	292.27
1004.267	296.96
1004.546	357.81
1004.826	287.59
1005.106	264.19
1005.386	334.4
1005.665	369.51
1005.945	254.83
1006.224	271.21
1006.504	306.32
1006.783	313.34
1007.063	339.09
1007.342	282.91
1007.621	299.3
1007.9	294.61
1008.179	236.1
1008.458	315.68
1008.737	259.51
1009.016	397.6
1009.295	296.96
1009.574	362.49
1009.853	318.02
1010.131	327.38
1010.41	348.45
1010.689	318.02
1010.967	294.61
1011.246	332.06
1011.524	313.34
1011.802	320.36
1012.081	355.47
1012.359	325.04
1012.637	357.81
1012.915	296.96
1013.193	329.72
1013.471	303.98
1013.749	294.61
1014.027	325.04
1014.305	392.92
1014.583	325.04
1014.86	292.27
1015.138	268.87
1015.416	327.38
1015.693	318.02
1015.971	378.87
1016.248	315.68
1016.525	322.7
1016.803	299.3
1017.08	275.89
1017.357	306.32
1017.634	397.6
1017.911	343.77
1018.188	378.87
1018.465	378.87
1018.742	378.87
