Data from FLMS031491_15-43-31-366.txt Node
Date: Sun Nov 07 15:43:31 EST 2021
User: Student
Spectrometer: FLMS03149
Trigger mode: 0
Integration Time (sec): 5.000000E-1
Scans to average: 1
Electric dark correction enabled: true
Nonlinearity correction enabled: false
Boxcar width: 0
XAxis mode: Wavelengths
Number of Pixels in Spectrum: 2048
>>>>>Begin Spectral Data<<<<<
338.754	-122.59
339.138	-122.59
339.521	-122.59
339.905	-199.82
340.288	-162.37
340.671	-160.03
341.055	-89.82
341.438	-75.77
341.821	-113.22
342.204	-94.5
342.587	-47.69
342.97	-31.3
343.353	-0.88
343.736	31.89
344.119	45.93
344.502	8.48
344.885	-5.56
345.268	153.6
345.65	38.91
346.033	148.92
346.416	191.05
346.798	179.34
347.181	193.39
347.563	244.88
347.946	247.22
348.328	212.11
348.71	277.65
349.093	326.8
349.475	254.24
349.857	324.46
350.239	317.44
350.621	312.75
351.003	308.07
351.385	343.18
351.767	392.33
352.149	312.75
352.531	352.54
352.913	279.99
353.295	354.88
353.676	378.29
354.058	347.86
354.44	331.48
354.821	336.16
355.203	345.52
355.584	352.54
355.966	389.99
356.347	305.73
356.729	392.33
357.11	303.39
357.491	294.03
357.873	265.94
358.254	354.88
358.635	233.18
359.016	258.92
359.397	371.27
359.778	296.37
360.159	284.67
360.54	294.03
360.921	233.18
361.301	317.44
361.682	322.12
362.063	282.33
362.444	291.69
362.824	294.03
363.205	275.31
363.585	263.6
363.966	244.88
364.346	258.92
364.727	296.37
365.107	389.99
365.487	291.69
365.867	366.59
366.248	284.67
366.628	322.12
367.008	322.12
367.388	385.31
367.768	296.37
368.148	268.28
368.528	263.6
368.908	301.05
369.288	287.01
369.667	303.39
370.047	214.45
370.427	329.14
370.806	282.33
371.186	392.33
371.566	277.65
371.945	242.54
372.325	268.28
372.704	338.5
373.083	312.75
373.463	359.56
373.842	322.12
374.221	350.2
374.6	301.05
374.979	277.65
375.358	296.37
375.737	258.92
376.116	422.76
376.495	319.78
376.874	308.07
377.253	303.39
377.632	354.88
378.011	277.65
378.389	263.6
378.768	387.65
379.147	305.73
379.525	345.52
379.904	312.75
380.282	301.05
380.661	315.09
381.039	265.94
381.417	247.22
381.796	244.88
382.174	268.28
382.552	289.35
382.93	324.46
383.308	310.41
383.686	272.96
384.064	294.03
384.442	331.48
384.82	303.39
385.198	315.09
385.576	324.46
385.954	310.41
386.331	371.27
386.709	305.73
387.087	378.29
387.464	289.35
387.842	310.41
388.219	336.16
388.597	303.39
388.974	333.82
389.351	345.52
389.729	408.72
390.106	359.56
390.483	329.14
390.86	359.56
391.237	331.48
391.614	303.39
391.991	310.41
392.368	329.14
392.745	324.46
393.122	361.91
393.499	329.14
393.876	282.33
394.253	361.91
394.629	317.44
395.006	289.35
395.382	305.73
395.759	277.65
396.135	312.75
396.512	275.31
396.888	331.48
397.265	312.75
397.641	354.88
398.017	432.12
398.393	319.78
398.77	301.05
399.146	338.5
399.522	345.52
399.898	343.18
400.274	277.65
400.65	418.08
401.026	347.86
401.401	322.12
401.777	298.71
402.153	359.56
402.529	317.44
402.904	366.59
403.28	375.95
403.655	373.61
404.031	277.65
404.406	294.03
404.782	198.07
405.157	404.03
405.532	336.16
405.908	322.12
406.283	389.99
406.658	380.63
407.033	301.05
407.408	336.16
407.783	347.86
408.158	284.67
408.533	425.1
408.908	296.37
409.283	340.84
409.658	263.6
410.033	343.18
410.407	399.35
410.782	359.56
411.157	301.05
411.531	446.16
411.906	401.69
412.28	322.12
412.654	287.01
413.029	385.31
413.403	322.12
413.777	340.84
414.152	371.27
414.526	340.84
414.9	343.18
415.274	371.27
415.648	287.01
416.022	359.56
416.396	371.27
416.77	387.65
417.144	322.12
417.518	345.52
417.891	315.09
418.265	448.51
418.639	319.78
419.012	287.01
419.386	518.72
419.759	336.16
420.133	397.01
420.506	324.46
420.88	336.16
421.253	338.5
421.626	298.71
421.999	338.5
422.373	415.74
422.746	457.87
423.119	338.5
423.492	270.62
423.865	375.95
424.238	375.95
424.611	420.42
424.984	366.59
425.356	382.97
425.729	287.01
426.102	394.67
426.474	425.1
426.847	432.12
427.22	439.14
427.592	490.63
427.965	413.4
428.337	413.4
428.709	450.85
429.082	429.78
429.454	389.99
429.826	436.8
430.198	497.66
430.571	418.08
430.943	448.51
431.315	467.23
431.687	621.7
432.059	525.74
432.431	457.87
432.802	514.04
433.174	495.32
433.546	441.48
433.918	549.15
434.289	495.32
434.661	556.17
435.032	574.89
435.404	647.45
435.775	626.39
436.147	757.46
436.518	684.9
436.89	670.86
437.261	759.8
437.632	743.41
438.003	687.24
438.374	759.8
438.745	907.25
439.116	811.29
439.487	881.5
439.858	956.4
440.229	1059.38
440.6	954.06
440.971	1024.28
441.342	1087.47
441.712	1162.37
442.083	1391.74
442.454	1225.56
442.824	1344.93
443.195	1405.78
443.565	1602.39
443.936	1614.09
444.306	1623.45
444.676	1787.29
445.047	1710.05
445.417	1920.7
445.787	1962.83
446.157	2107.94
446.527	2255.4
446.897	2634.57
447.267	2407.53
447.637	2667.33
448.007	2735.21
448.377	2962.24
448.747	3203.32
449.116	3367.15
449.486	3425.67
449.856	3727.6
450.225	4186.34
450.595	4991.48
450.964	5405.76
451.334	5901.95
451.703	5880.89
452.073	6049.41
452.442	6082.17
452.811	6695.39
453.18	7041.79
453.55	7305.075684
453.919	7567.649784
454.288	7830.223885
454.657	8092.797986
455.026	8355.372087
455.395	8617.946188
455.764	8880.520288
456.132	9142.382806
456.501	9404.956907
456.87	9667.531008
457.239	9930.105108
457.607	10191.96763
457.976	10454.54173
458.344	10716.40424
458.713	10978.97835
459.081	11240.84086
459.45	11503.41496
459.818	11765.27748
460.186	12027.14
460.555	12443.75
460.923	12347.79
461.291	12394.6
461.659	12656.74
462.027	12998.46
462.395	13131.87
462.763	13588.27
463.131	13550.82
463.499	14168.73
463.867	14119.57
464.235	14262.35
464.602	14845.14
464.97	14746.84
465.338	15327.29
465.705	15364.74
466.073	15224.31
466.44	15502.83
466.808	15472.4
467.175	15893.7
467.542	15842.21
467.91	16066.9
468.277	16476.49
468.644	16556.07
469.011	16485.86
469.378	16333.72
469.745	16272.87
470.112	16574.8
470.479	16361.81
470.846	16425
471.213	16073.92
471.58	16497.56
471.947	16595.86
472.313	16242.44
472.68	16132.43
473.047	16176.91
473.413	16043.49
473.78	15610.5
474.146	15896.04
474.513	15505.17
474.879	15348.36
475.245	15207.92
475.612	15645.6
475.978	14739.82
476.344	14489.38
476.71	14236.6
477.076	14756.2
477.442	14030.63
477.808	13983.82
478.174	13803.6
478.54	13424.44
478.906	13365.92
479.272	13185.7
479.638	13054.63
480.003	12630.99
480.369	12282.25
480.734	12188.63
481.1	11886.7
481.466	12092.67
481.831	11596.48
482.196	11355.4
482.562	11126.03
482.927	11093.26
483.292	10470.68
483.658	10700.05
484.023	10325.57
484.388	10290.46
484.753	10180.45
485.118	9920.65
485.483	9501.7
485.848	9482.97
486.213	9246.58
486.578	9152.96
486.942	8808.9
487.307	8865.07
487.672	8860.39
488.036	8560.8
488.401	8308.02
488.765	8214.4
489.13	7942.9
489.494	8001.41
489.859	7711.19
490.223	7505.22
490.587	7631.61
490.952	7261.8
491.316	6978.6
491.68	7090.95
492.044	6805.4
492.408	6859.23
492.772	6753.91
493.136	6700.08
493.5	6461.34
493.864	6641.56
494.228	6412.19
494.591	6381.76
494.955	6140.69
495.319	6194.52
495.682	6208.56
496.046	6154.73
496.409	5780.25
496.773	5953.45
497.136	5803.65
497.5	5796.63
497.863	5618.75
498.226	5768.54
498.589	5695.99
498.953	5532.15
499.316	5403.42
499.679	5567.26
500.042	5333.2
500.405	5422.14
500.768	5195.11
501.131	5183.41
501.494	5255.97
501.856	5288.73
502.219	5183.41
502.582	5106.17
502.944	5143.62
503.307	5183.41
503.669	5096.81
504.032	5106.17
504.394	4944.67
504.757	4935.31
505.119	4909.57
505.481	4958.72
505.844	4972.76
506.206	4963.4
506.568	4977.44
506.93	5113.19
507.292	4942.33
507.654	4879.14
508.016	4986.8
508.378	4979.78
508.74	4949.36
509.102	4961.06
509.463	5014.89
509.825	4914.25
510.187	4829.99
510.548	4811.26
510.91	5021.91
511.272	4783.18
511.633	4932.97
511.994	4811.26
512.356	4872.12
512.717	4865.1
513.078	4961.06
513.44	4787.86
513.801	4876.8
514.162	5024.25
514.523	4886.16
514.884	5026.59
515.245	5094.47
515.606	5106.17
515.967	4984.46
516.328	5101.49
516.688	5059.36
517.049	4939.99
517.41	4977.44
517.77	5164.68
518.131	5064.04
518.491	5080.43
518.852	5096.81
519.212	5082.77
519.573	5157.66
519.933	5134.26
520.293	5162.34
520.654	5192.77
521.014	5213.84
521.374	5363.63
521.734	5426.82
522.094	5351.93
522.454	5377.67
522.814	5326.18
523.174	5490.02
523.534	5387.04
523.894	5649.18
524.253	5534.49
524.613	5532.15
524.973	5637.47
525.332	5585.98
525.692	5590.66
526.051	5913.66
526.411	5569.6
526.77	5674.92
527.13	5672.58
527.489	5688.96
527.848	5878.55
528.207	5845.78
528.567	6334.95
528.926	5864.5
529.285	5976.85
529.644	5831.74
530.003	5932.38
530.362	5948.76
530.72	6007.28
531.079	5946.42
531.438	6131.33
531.797	6042.39
532.155	6110.26
532.514	5939.4
532.873	6278.78
533.231	6238.99
533.59	6227.29
533.948	6276.44
534.306	6353.68
534.665	6337.29
535.023	6306.87
535.381	6231.97
535.739	6433.25
536.097	6594.75
536.456	6412.19
536.814	6398.15
537.172	6599.43
537.529	6615.82
537.887	6433.25
538.245	6543.26
538.603	6550.28
538.961	6501.13
539.318	6669.65
539.676	6564.32
540.034	6613.48
540.391	6519.85
540.749	6583.05
541.106	6611.14
541.463	6690.71
541.821	6760.93
542.178	6732.84
542.535	6742.21
542.892	6704.76
543.25	6955.19
543.607	6639.22
543.964	6929.45
544.321	6812.42
544.678	6765.61
545.035	6884.98
545.391	6821.78
545.748	6887.32
546.105	6917.75
546.462	6842.85
546.818	6924.77
547.175	6772.63
547.531	6810.08
547.888	6936.47
548.244	6927.11
548.601	7133.08
548.957	7055.84
549.313	6835.83
549.67	7030.09
550.026	7020.73
550.382	7034.77
550.738	7273.51
551.094	7285.21
551.45	7086.26
551.806	7067.54
552.162	7121.37
552.518	7212.65
552.874	7214.99
553.229	7114.35
553.585	7198.61
553.941	7203.29
554.296	7112.01
554.652	7179.89
555.007	7147.12
555.363	7147.12
555.718	7252.44
556.074	7353.09
556.429	7222.02
556.784	7308.62
557.139	7247.76
557.495	7236.06
557.85	7289.89
558.205	7364.79
558.56	7395.22
558.915	7378.83
559.27	7521.6
559.624	7526.29
559.979	7493.52
560.334	7325
560.689	7374.15
561.043	7467.77
561.398	7530.97
561.753	7706.51
562.107	7552.03
562.462	7601.18
562.816	7666.72
563.17	7725.23
563.525	7608.2
563.879	7619.91
564.233	7694.8
564.587	7591.82
564.941	7870.34
565.295	7905.45
565.649	7835.24
566.003	7755.66
566.357	7722.89
566.711	7989.71
567.065	7828.21
567.419	7947.58
567.773	7823.53
568.126	7891.41
568.48	8076.31
568.833	7968.65
569.187	8097.38
569.54	7905.45
569.894	8116.1
570.247	7952.26
570.6	8080.99
570.954	8214.4
571.307	8048.22
571.66	8172.27
572.013	8230.79
572.366	8057.59
572.719	8132.48
573.072	8205.04
573.425	8265.89
573.778	8258.87
574.131	8485.9
574.484	8214.4
574.836	8422.71
575.189	8303.34
575.542	8399.3
575.894	8230.79
576.247	8460.16
576.599	8532.72
576.952	8331.43
577.304	8389.94
577.656	8286.96
578.009	8579.53
578.361	8478.88
578.713	8523.35
579.065	8483.56
579.417	8389.94
579.769	8609.95
580.121	8687.19
580.473	8572.5
580.825	8525.69
581.177	8516.33
581.528	8626.34
581.88	8668.47
582.232	8495.27
582.584	8570.16
582.935	8560.8
583.287	8385.26
583.638	8420.37
583.989	8600.59
584.341	8403.99
584.692	8483.56
585.043	8476.54
585.395	8581.87
585.746	8532.72
586.097	8392.28
586.448	8478.88
586.799	8506.97
587.15	8317.39
587.501	8652.08
587.852	8277.6
588.203	8635.7
588.553	8612.29
588.904	8684.85
589.255	8595.91
589.605	8544.42
589.956	8277.6
590.306	8481.22
590.657	8382.92
591.007	8371.22
591.358	8612.29
591.708	8343.13
592.058	8378.24
592.408	8460.16
592.759	8436.75
593.109	8593.57
593.459	8319.73
593.809	8275.26
594.159	8406.33
594.509	8511.65
594.859	8406.33
595.208	8354.83
595.558	8326.75
595.908	8284.62
596.258	8361.86
596.607	8364.2
596.957	8375.9
597.306	8272.92
597.656	8214.4
598.005	8024.82
598.354	8183.98
598.704	8303.34
599.053	8284.62
599.402	8450.8
599.751	8389.94
600.1	8001.41
600.45	8237.81
600.799	8368.88
601.148	8322.07
601.496	8174.61
601.845	8162.91
602.194	8158.23
602.543	8256.53
602.892	8251.85
603.24	8113.76
603.589	8471.86
603.937	8226.11
604.286	8144.19
604.634	8160.57
604.983	8017.8
605.331	8134.82
605.679	8167.59
606.028	8336.11
606.376	8392.28
606.724	8418.03
607.072	8195.68
607.42	8315.05
607.768	8085.67
608.116	8188.66
608.464	8212.06
608.812	8403.99
609.16	8258.87
609.507	8265.89
609.855	8120.78
610.203	8230.79
610.55	8205.04
610.898	8099.72
611.245	8219.08
611.593	8371.22
611.94	8301
612.288	8282.28
612.635	8118.44
612.982	8116.1
613.329	8258.87
613.676	8396.96
614.024	8382.92
614.371	8375.9
614.718	8256.53
615.064	8226.11
615.411	8148.87
615.758	8258.87
616.105	8322.07
616.452	8284.62
616.798	8195.68
617.145	8258.87
617.492	8230.79
617.838	8247.17
618.185	8392.28
618.531	8179.29
618.877	8137.16
619.224	8282.28
619.57	8373.56
619.916	8132.48
620.263	8059.93
620.609	8151.21
620.955	7999.07
621.301	8099.72
621.647	8027.16
621.993	8120.78
622.339	8181.64
622.684	8090.35
623.03	8230.79
623.376	8193.34
623.722	8235.47
624.067	8008.44
624.413	8244.83
624.758	8109.08
625.104	8080.99
625.449	8073.97
625.795	7963.97
626.14	8008.44
626.485	8165.25
626.83	8146.53
627.175	7846.94
627.521	7980.35
627.866	7982.69
628.211	7921.84
628.556	7809.49
628.901	7875.02
629.245	7978.01
629.59	8050.57
629.935	7931.2
630.28	7776.72
630.624	7776.72
630.969	7846.94
631.314	7624.59
631.658	7776.72
632.002	7568.41
632.347	7605.86
632.691	7617.57
633.036	7790.77
633.38	7521.6
633.724	7589.48
634.068	7580.12
634.412	7568.41
634.756	7523.94
635.1	7458.41
635.444	7493.52
635.788	7451.39
636.132	7308.62
636.476	7371.81
636.82	7264.15
637.163	7238.4
637.507	7292.23
637.85	7343.72
638.194	7355.43
638.537	7151.8
638.881	7257.12
639.224	7357.77
639.568	7158.82
639.911	6964.56
640.254	7114.35
640.597	6934.13
640.94	6936.47
641.284	6861.57
641.627	6969.24
641.97	7095.63
642.312	6842.85
642.655	6861.57
642.998	6927.11
643.341	6774.97
643.684	6767.95
644.026	6749.23
644.369	6664.97
644.712	6510.49
645.054	6669.65
645.396	6491.77
645.739	6547.94
646.081	6683.69
646.424	6681.35
646.766	6671.99
647.108	6531.56
647.45	6470.7
647.792	6449.64
648.134	6524.54
648.476	6449.64
648.818	6430.91
649.16	6367.72
649.502	6299.84
649.844	6327.93
650.186	6341.97
650.527	6393.47
650.869	6363.04
651.211	6215.59
651.552	6243.67
651.894	6166.43
652.235	6192.18
652.576	6070.47
652.918	6004.94
653.259	6000.26
653.6	5958.13
653.942	5983.87
654.283	5955.79
654.624	6119.62
654.965	6107.92
655.306	5894.93
655.647	6091.54
655.988	5927.7
656.328	5794.29
656.669	5871.53
657.01	5962.81
657.351	5887.91
657.691	6072.81
658.032	5681.94
658.372	5614.07
658.713	5789.61
659.053	5588.32
659.394	5803.65
659.734	5733.43
660.074	5658.54
660.414	5674.92
660.755	5733.43
661.095	5457.25
661.435	5595.34
661.775	5693.65
662.115	5628.11
662.455	5567.26
662.794	5574.28
663.134	5504.06
663.474	5436.19
663.814	5370.65
664.153	5461.93
664.493	5468.95
664.833	5410.44
665.172	5387.04
665.511	5532.15
665.851	5454.91
666.19	5356.61
666.529	5429.17
666.869	5464.27
667.208	5298.1
667.547	5302.78
667.886	5365.97
668.225	5176.39
668.564	5143.62
668.903	5171.71
669.242	5248.94
669.581	5150.64
669.92	5279.37
670.258	5202.13
670.597	5075.74
670.936	5092.13
671.274	5141.28
671.613	5265.33
671.951	5106.17
672.29	5061.7
672.628	5026.59
672.966	4972.76
673.304	4921.27
673.643	5033.61
673.981	5007.87
674.319	4914.25
674.657	4879.14
674.995	4956.38
675.333	4975.1
675.671	4876.8
676.009	4914.25
676.346	4780.84
676.684	4790.2
677.022	4846.37
677.36	4778.5
677.697	4764.45
678.035	4698.92
678.372	4820.63
678.71	4890.84
679.047	4808.92
679.384	4825.31
679.722	4703.6
680.059	4694.24
680.396	4602.96
680.733	4624.02
681.07	4556.15
681.407	4542.1
681.744	4509.33
682.081	4591.25
682.418	4441.46
682.755	4591.25
683.092	4532.74
683.428	4516.36
683.765	4504.65
684.102	4453.16
684.438	4471.89
684.775	4326.77
685.111	4415.71
685.447	4303.37
685.784	4450.82
686.12	4422.73
686.456	4406.35
686.793	4319.75
687.129	4361.88
687.465	4130.17
687.801	4298.69
688.137	4207.41
688.473	4055.27
688.809	4141.87
689.144	4031.87
689.48	4083.36
689.816	4219.11
690.152	4195.7
690.487	4191.02
690.823	4071.65
691.158	4003.78
691.494	4151.23
691.829	3914.84
692.165	4034.21
692.5	3931.22
692.835	3940.58
693.17	4013.14
693.506	3877.39
693.841	3809.51
694.176	3875.05
694.511	3804.83
694.846	3795.47
695.181	3732.28
695.515	3926.54
695.85	3772.07
696.185	3676.1
696.52	3680.78
696.854	3725.26
697.189	3568.44
697.523	3523.97
697.858	3589.5
698.192	3526.31
698.527	3701.85
698.861	3577.8
699.195	3465.46
699.53	3460.77
699.864	3523.97
700.198	3456.09
700.532	3395.24
700.866	3418.64
701.2	3313.32
701.534	3282.89
701.868	3348.43
702.201	3355.45
702.535	3236.08
702.869	3219.7
703.203	3261.83
703.536	3350.77
703.87	3292.26
704.203	3144.8
704.537	3271.19
704.87	3151.82
705.203	3196.29
705.537	3168.21
705.87	3191.61
706.203	3095.65
706.536	3093.31
706.869	3100.33
707.202	3105.01
707.535	2957.56
707.868	2976.28
708.201	3011.39
708.534	2931.81
708.867	2995.01
709.199	2915.43
709.532	2962.24
709.865	2742.23
710.197	3002.03
710.53	2901.39
710.862	2721.17
711.195	2721.17
711.527	2775
711.859	2765.64
712.191	2789.04
712.524	2812.45
712.856	2845.21
713.188	2721.17
713.52	2547.97
713.852	2686.06
714.184	2557.33
714.516	2611.16
714.847	2643.93
715.179	2660.31
715.511	2554.99
715.843	2547.97
716.174	2611.16
716.506	2473.07
716.837	2421.58
717.169	2526.9
717.5	2529.24
717.832	2550.31
718.163	2477.75
718.494	2480.09
718.825	2381.79
719.156	2398.17
719.488	2496.47
719.819	2452
720.15	2409.87
720.48	2477.75
720.811	2384.13
721.142	2377.11
721.473	2297.53
721.804	2332.64
722.134	2260.08
722.465	2349.02
722.796	2274.12
723.126	2346.68
723.457	2192.2
723.787	2342
724.117	2250.72
724.448	2217.95
724.778	2283.49
725.108	2342
725.438	2196.89
725.768	2210.93
726.098	2208.59
726.428	2119.65
726.758	2131.35
727.088	2129.01
727.418	2234.33
727.748	2021.35
728.078	2009.64
728.407	2100.92
728.737	2117.31
729.066	2119.65
729.396	2110.29
729.725	2054.11
730.055	2061.13
730.384	1995.6
730.714	2117.31
731.043	1976.87
731.372	2023.69
731.701	1976.87
732.03	1948.79
732.359	1897.3
732.688	1841.12
733.017	1930.06
733.346	1958.15
733.675	1976.87
734.004	1960.49
734.332	1923.04
734.661	1883.25
734.99	1850.49
735.318	1967.51
735.647	1873.89
735.975	1873.89
736.304	1911.34
736.632	1815.38
736.96	1747.5
737.289	1822.4
737.617	1681.97
737.945	1831.76
738.273	1909
738.601	1759.21
738.929	1834.1
739.257	1768.57
739.585	1754.52
739.913	1820.06
740.241	1703.03
740.568	1670.26
740.896	1632.82
741.224	1672.61
741.551	1644.52
741.879	1684.31
742.206	1677.29
742.534	1663.24
742.861	1656.22
743.188	1717.08
743.516	1674.95
743.843	1667.92
744.17	1642.18
744.497	1651.54
744.824	1635.16
745.151	1637.5
745.478	1681.97
745.805	1607.07
746.132	1541.54
746.459	1468.98
746.785	1595.37
747.112	1567.28
747.439	1571.96
747.765	1581.32
748.092	1553.24
748.418	1644.52
748.745	1583.66
749.071	1576.64
749.397	1492.38
749.723	1487.7
750.05	1459.62
750.376	1504.09
750.702	1401.1
751.028	1471.32
751.354	1422.17
751.68	1464.3
752.006	1548.56
752.332	1529.83
752.657	1396.42
752.983	1440.89
753.309	1354.29
753.634	1522.81
753.96	1480.68
754.286	1518.13
754.611	1347.27
754.936	1314.5
755.262	1473.66
755.587	1476
755.912	1452.59
756.237	1417.49
756.563	1330.89
756.888	1358.97
757.213	1361.31
757.538	1405.78
757.863	1382.38
758.188	1405.78
758.512	1391.74
758.837	1312.16
759.162	1251.31
759.487	1314.5
759.811	1232.58
760.136	1277.05
760.46	1265.35
760.785	1258.33
761.109	1312.16
761.433	1314.5
761.758	1288.76
762.082	1270.03
762.406	1344.93
762.73	1223.22
763.054	1167.05
763.378	1291.1
763.702	1267.69
764.026	1291.1
764.35	1234.93
764.674	1160.03
764.998	1174.07
765.321	1195.14
765.645	1145.98
765.969	1174.07
766.292	1155.35
766.616	1153.01
766.939	1155.35
767.263	1199.82
767.586	1138.96
767.909	1153.01
768.232	1148.33
768.556	1148.33
768.879	1153.01
769.202	1145.98
769.525	1181.09
769.848	1206.84
770.171	1103.86
770.494	1148.33
770.816	1284.08
771.139	1082.79
771.462	1000.87
771.785	1108.54
772.107	1136.62
772.43	1045.34
772.752	1258.33
773.075	1038.32
773.397	1068.75
773.719	1138.96
774.042	1057.04
774.364	904.91
774.686	996.19
775.008	1007.89
775.33	1071.09
775.652	972.79
775.974	1019.6
776.296	937.68
776.618	1052.36
776.94	965.76
777.261	949.38
777.583	1061.73
777.905	965.76
778.226	904.91
778.548	961.08
778.869	961.08
779.191	900.23
779.512	942.36
779.833	935.34
780.155	921.29
780.476	930.66
780.797	881.5
781.118	851.08
781.439	986.83
781.76	844.06
782.081	914.27
782.402	872.14
782.723	968.1
783.044	895.55
783.364	989.17
783.685	883.84
784.006	947.04
784.326	886.19
784.647	860.44
784.967	944.7
785.288	890.87
785.608	825.33
785.928	893.21
786.249	837.03
786.569	869.8
786.889	923.63
787.209	867.46
787.529	909.59
787.849	881.5
788.169	837.03
788.489	879.16
788.809	822.99
789.128	904.91
789.448	839.37
789.768	933
790.087	860.44
790.407	799.59
790.726	813.63
791.046	865.12
791.365	822.99
791.685	902.57
792.004	769.16
792.323	762.14
792.642	862.78
792.961	865.12
793.28	764.48
793.599	806.61
793.918	787.88
794.237	759.8
794.556	806.61
794.875	808.95
795.194	825.33
795.512	778.52
795.831	769.16
796.15	769.16
796.468	820.65
796.787	820.65
797.105	773.84
797.423	750.43
797.742	764.48
798.06	752.77
798.378	808.95
798.696	762.14
799.014	783.2
799.333	762.14
799.65	792.56
799.968	801.93
800.286	825.33
800.604	748.09
800.922	698.94
801.24	762.14
801.557	701.28
801.875	736.39
802.193	701.28
802.51	748.09
802.827	661.49
803.145	766.82
803.462	752.77
803.78	705.96
804.097	752.77
804.414	649.79
804.731	645.11
805.048	656.81
805.365	736.39
805.682	731.71
805.999	731.71
806.316	607.66
806.633	591.28
806.95	710.65
807.266	698.94
807.583	661.49
807.899	701.28
808.216	717.67
808.533	635.75
808.849	691.92
809.165	715.33
809.482	663.83
809.798	635.75
810.114	691.92
810.43	734.05
810.746	619.36
811.062	584.26
811.378	682.56
811.694	668.52
812.01	624.05
812.326	675.54
812.642	628.73
812.958	682.56
813.273	652.13
813.589	607.66
813.905	581.92
814.22	642.77
814.536	602.98
814.851	673.2
815.166	598.3
815.482	642.77
815.797	654.47
816.112	675.54
816.427	617.02
816.742	607.66
817.057	631.07
817.372	687.24
817.687	600.64
818.002	584.26
818.317	584.26
818.632	595.96
818.946	628.73
819.261	572.55
819.576	502.34
819.89	586.6
820.205	556.17
820.519	591.28
820.833	507.02
821.148	542.13
821.462	602.98
821.776	600.64
822.09	605.32
822.405	544.47
822.719	457.87
823.033	516.38
823.347	530.42
823.66	579.58
823.974	661.49
824.288	574.89
824.602	628.73
824.915	598.3
825.229	588.94
825.543	500
825.856	586.6
826.17	502.34
826.483	523.4
826.796	565.53
827.11	577.23
827.423	518.72
827.736	518.72
828.049	434.46
828.362	483.61
828.675	485.95
828.988	427.44
829.301	502.34
829.614	450.85
829.927	471.91
830.24	565.53
830.552	514.04
830.865	518.72
831.178	544.47
831.49	441.48
831.803	521.06
832.115	481.27
832.428	502.34
832.74	455.53
833.052	483.61
833.364	425.1
833.676	507.02
833.989	495.32
834.301	415.74
834.613	523.4
834.925	525.74
835.236	591.28
835.548	490.63
835.86	581.92
836.172	860.44
836.483	488.29
836.795	478.93
837.107	478.93
837.418	450.85
837.73	420.42
838.041	521.06
838.352	469.57
838.664	469.57
838.975	436.8
839.286	528.08
839.597	429.78
839.908	553.83
840.219	460.21
840.53	443.82
840.841	380.63
841.152	429.78
841.463	478.93
841.773	432.12
842.084	455.53
842.395	490.63
842.705	364.25
843.016	450.85
843.326	492.98
843.637	560.85
843.947	450.85
844.257	392.33
844.568	488.29
844.878	443.82
845.188	504.68
845.498	478.93
845.808	411.06
846.118	427.44
846.428	469.57
846.738	453.19
847.048	427.44
847.358	443.82
847.667	425.1
847.977	422.76
848.287	389.99
848.596	462.55
848.906	399.35
849.215	455.53
849.524	450.85
849.834	397.01
850.143	441.48
850.452	411.06
850.761	420.42
851.07	380.63
851.379	385.31
851.688	427.44
851.997	392.33
852.306	448.51
852.615	434.46
852.924	352.54
853.233	448.51
853.541	425.1
853.85	420.42
854.158	464.89
854.467	420.42
854.775	425.1
855.084	488.29
855.392	448.51
855.7	434.46
856.009	354.88
856.317	408.72
856.625	432.12
856.933	415.74
857.241	469.57
857.549	415.74
857.857	397.01
858.165	394.67
858.473	455.53
858.78	427.44
859.088	422.76
859.396	385.31
859.703	511.7
860.011	457.87
860.318	448.51
860.626	399.35
860.933	418.08
861.24	387.65
861.547	303.39
861.855	434.46
862.162	476.59
862.469	448.51
862.776	450.85
863.083	436.8
863.39	361.91
863.697	340.84
864.003	415.74
864.31	361.91
864.617	420.42
864.924	420.42
865.23	404.03
865.537	404.03
865.843	364.25
866.15	415.74
866.456	364.25
866.762	394.67
867.068	385.31
867.375	345.52
867.681	389.99
867.987	368.93
868.293	404.03
868.599	404.03
868.905	397.01
869.211	406.38
869.517	389.99
869.822	315.09
870.128	408.72
870.434	399.35
870.739	375.95
871.045	420.42
871.35	322.12
871.656	397.01
871.961	350.2
872.266	375.95
872.572	439.14
872.877	380.63
873.182	404.03
873.487	432.12
873.792	380.63
874.097	420.42
874.402	471.91
874.707	408.72
875.012	385.31
875.317	378.29
875.621	336.16
875.926	352.54
876.231	387.65
876.535	338.5
876.84	441.48
877.144	420.42
877.448	340.84
877.753	418.08
878.057	450.85
878.361	324.46
878.665	350.2
878.97	352.54
879.274	350.2
879.578	422.76
879.882	354.88
880.185	375.95
880.489	354.88
880.793	338.5
881.097	408.72
881.4	364.25
881.704	385.31
882.008	448.51
882.311	371.27
882.615	453.19
882.918	345.52
883.221	310.41
883.525	331.48
883.828	397.01
884.131	343.18
884.434	425.1
884.737	394.67
885.04	310.41
885.343	301.05
885.646	322.12
885.949	347.86
886.252	352.54
886.554	352.54
886.857	343.18
887.16	291.69
887.462	375.95
887.765	340.84
888.067	401.69
888.369	326.8
888.672	427.44
888.974	343.18
889.276	361.91
889.578	326.8
889.881	359.56
890.183	326.8
890.485	303.39
890.787	415.74
891.089	373.61
891.39	315.09
891.692	378.29
891.994	315.09
892.296	418.08
892.597	336.16
892.899	415.74
893.2	291.69
893.502	340.84
893.803	331.48
894.104	387.65
894.406	357.22
894.707	272.96
895.008	347.86
895.309	357.22
895.61	296.37
895.911	333.82
896.212	408.72
896.513	310.41
896.814	333.82
897.115	368.93
897.416	382.97
897.716	354.88
898.017	357.22
898.317	345.52
898.618	315.09
898.918	373.61
899.219	359.56
899.519	310.41
899.819	387.65
900.12	350.2
900.42	354.88
900.72	361.91
901.02	352.54
901.32	315.09
901.62	333.82
901.92	439.14
902.22	294.03
902.519	340.84
902.819	340.84
903.119	359.56
903.418	448.51
903.718	310.41
904.018	413.4
904.317	399.35
904.616	333.82
904.916	298.71
905.215	315.09
905.514	310.41
905.813	303.39
906.113	350.2
906.412	322.12
906.711	345.52
907.01	291.69
907.308	357.22
907.607	301.05
907.906	315.09
908.205	317.44
908.503	361.91
908.802	404.03
909.101	319.78
909.399	331.48
909.698	242.54
909.996	350.2
910.294	268.28
910.593	408.72
910.891	333.82
911.189	331.48
911.487	338.5
911.785	317.44
912.083	350.2
912.381	312.75
912.679	282.33
912.977	333.82
913.275	350.2
913.572	277.65
913.87	296.37
914.168	366.59
914.465	350.2
914.763	338.5
915.06	284.67
915.358	397.01
915.655	338.5
915.952	413.4
916.249	366.59
916.547	418.08
916.844	301.05
917.141	277.65
917.438	319.78
917.735	319.78
918.032	275.31
918.328	296.37
918.625	392.33
918.922	315.09
919.219	469.57
919.515	357.22
919.812	364.25
920.108	415.74
920.405	373.61
920.701	305.73
920.997	413.4
921.294	350.2
921.59	333.82
921.886	420.42
922.182	326.8
922.478	389.99
922.774	315.09
923.07	331.48
923.366	289.35
923.662	303.39
923.957	275.31
924.253	326.8
924.549	366.59
924.844	340.84
925.14	329.14
925.435	301.05
925.731	368.93
926.026	347.86
926.322	333.82
926.617	352.54
926.912	319.78
927.207	352.54
927.502	324.46
927.797	340.84
928.092	354.88
928.387	338.5
928.682	294.03
928.977	401.69
929.272	418.08
929.566	359.56
929.861	389.99
930.156	347.86
930.45	289.35
930.745	317.44
931.039	324.46
931.333	560.85
931.628	394.67
931.922	373.61
932.216	317.44
932.51	279.99
932.804	387.65
933.098	366.59
933.392	336.16
933.686	261.26
933.98	317.44
934.274	333.82
934.568	324.46
934.861	312.75
935.155	308.07
935.449	345.52
935.742	378.29
936.036	336.16
936.329	352.54
936.622	387.65
936.916	331.48
937.209	483.61
937.502	331.48
937.795	392.33
938.088	310.41
938.381	315.09
938.674	336.16
938.967	357.22
939.26	471.91
939.553	394.67
939.845	326.8
940.138	425.1
940.431	338.5
940.723	343.18
941.016	305.73
941.308	368.93
941.601	333.82
941.893	408.72
942.185	345.52
942.478	354.88
942.77	296.37
943.062	289.35
943.354	322.12
943.646	326.8
943.938	364.25
944.23	303.39
944.522	322.12
944.813	319.78
945.105	336.16
945.397	336.16
945.688	338.5
945.98	282.33
946.271	338.5
946.563	317.44
946.854	289.35
947.145	305.73
947.437	329.14
947.728	315.09
948.019	326.8
948.31	345.52
948.601	275.31
948.892	333.82
949.183	345.52
949.474	345.52
949.765	322.12
950.056	399.35
950.346	298.71
950.637	401.69
950.927	303.39
951.218	375.95
951.508	312.75
951.799	340.84
952.089	270.62
952.38	301.05
952.67	329.14
952.96	244.88
953.25	404.03
953.54	368.93
953.83	263.6
954.12	287.01
954.41	408.72
954.7	347.86
954.99	385.31
955.279	352.54
955.569	298.71
955.859	340.84
956.148	301.05
956.438	324.46
956.727	336.16
957.017	340.84
957.306	282.33
957.595	357.22
957.885	322.12
958.174	373.61
958.463	432.12
958.752	380.63
959.041	427.44
959.33	404.03
959.619	336.16
959.908	324.46
960.196	289.35
960.485	303.39
960.774	329.14
961.062	279.99
961.351	397.01
961.639	270.62
961.928	319.78
962.216	268.28
962.504	312.75
962.793	324.46
963.081	312.75
963.369	315.09
963.657	359.56
963.945	329.14
964.233	270.62
964.521	329.14
964.809	308.07
965.097	329.14
965.385	268.28
965.672	354.88
965.96	305.73
966.247	308.07
966.535	301.05
966.822	294.03
967.11	322.12
967.397	308.07
967.685	279.99
967.972	338.5
968.259	338.5
968.546	347.86
968.833	284.67
969.12	359.56
969.407	310.41
969.694	347.86
969.981	291.69
970.268	389.99
970.554	249.56
970.841	324.46
971.128	282.33
971.414	329.14
971.701	312.75
971.987	308.07
972.274	284.67
972.56	352.54
972.846	375.95
973.132	357.22
973.418	322.12
973.705	272.96
973.991	303.39
974.277	343.18
974.563	282.33
974.848	272.96
975.134	268.28
975.42	343.18
975.706	336.16
975.991	305.73
976.277	343.18
976.562	312.75
976.848	378.29
977.133	340.84
977.419	368.93
977.704	312.75
977.989	291.69
978.274	301.05
978.56	324.46
978.845	338.5
979.13	310.41
979.415	371.27
979.7	301.05
979.984	345.52
980.269	315.09
980.554	329.14
980.839	326.8
981.123	287.01
981.408	392.33
981.692	294.03
981.977	338.5
982.261	336.16
982.545	373.61
982.83	265.94
983.114	394.67
983.398	375.95
983.682	298.71
983.966	354.88
984.25	333.82
984.534	296.37
984.818	385.31
985.102	279.99
985.386	279.99
985.669	251.9
985.953	317.44
986.236	338.5
986.52	326.8
986.803	485.95
987.087	270.62
987.37	354.88
987.654	338.5
987.937	406.38
988.22	340.84
988.503	242.54
988.786	275.31
989.069	352.54
989.352	319.78
989.635	282.33
989.918	275.31
990.201	319.78
990.483	378.29
990.766	305.73
991.049	366.59
991.331	324.46
991.614	333.82
991.896	366.59
992.179	279.99
992.461	310.41
992.743	308.07
993.025	308.07
993.307	394.67
993.59	298.71
993.872	338.5
994.154	284.67
994.436	275.31
994.717	272.96
994.999	289.35
995.281	329.14
995.563	329.14
995.844	277.65
996.126	282.33
996.407	298.71
996.689	315.09
996.97	282.33
997.252	298.71
997.533	338.5
997.814	354.88
998.095	317.44
998.376	268.28
998.657	247.22
998.938	366.59
999.219	345.52
999.5	289.35
999.781	392.33
1000.062	319.78
1000.343	287.01
1000.623	312.75
1000.904	279.99
1001.184	275.31
1001.465	333.82
1001.745	279.99
1002.026	277.65
1002.306	261.26
1002.586	301.05
1002.866	261.26
1003.147	279.99
1003.427	354.88
1003.707	397.01
1003.987	319.78
1004.267	261.26
1004.546	265.94
1004.826	331.48
1005.106	422.76
1005.386	333.82
1005.665	275.31
1005.945	263.6
1006.224	291.69
1006.504	343.18
1006.783	294.03
1007.063	357.22
1007.342	319.78
1007.621	310.41
1007.9	223.81
1008.179	291.69
1008.458	287.01
1008.737	338.5
1009.016	408.72
1009.295	420.42
1009.574	301.05
1009.853	312.75
1010.131	347.86
1010.41	242.54
1010.689	289.35
1010.967	305.73
1011.246	319.78
1011.524	301.05
1011.802	261.26
1012.081	261.26
1012.359	322.12
1012.637	338.5
1012.915	305.73
1013.193	354.88
1013.471	340.84
1013.749	287.01
1014.027	282.33
1014.305	308.07
1014.583	219.13
1014.86	244.88
1015.138	228.49
1015.416	343.18
1015.693	345.52
1015.971	310.41
1016.248	282.33
1016.525	244.88
1016.803	294.03
1017.08	284.67
1017.357	366.59
1017.634	310.41
1017.911	268.28
1018.188	375.95
1018.465	375.95
1018.742	375.95
